timestamp_ms,sample_index,raw_ecg_mv
18.915,38261,15.333563
19.096,38262,15.268077
42.777,38263,15.539182
44.697,38264,15.421624
44.765,38265,15.722154
70.700,38266,15.844978
70.763,38267,15.786415
75.618,38268,16.142551
75.689,38269,15.972849
75.743,38270,16.163827
75.794,38271,16.098701
75.845,38272,15.978763
103.549,38273,16.184021
103.817,38274,15.814687
103.859,38275,16.026436
128.870,38276,15.946669
128.923,38277,15.791824
153.388,38278,15.895391
153.456,38279,15.543870
153.508,38280,15.637844
176.068,38281,15.528796
176.243,38282,15.359888
182.278,38283,15.658615
207.073,38284,15.344814
208.097,38285,15.603731
231.685,38286,15.499587
231.736,38287,15.365225
231.771,38288,15.574017
231.805,38289,15.308898
262.637,38290,15.562117
288.796,38291,15.472325
288.852,38292,15.398328
288.889,38293,15.602360
288.922,38294,15.373302
314.635,38295,15.443765
314.702,38296,15.393857
314.751,38297,15.371932
340.663,38298,15.536513
340.721,38299,15.280770
362.757,38300,15.407271
362.824,38301,15.388303
362.868,38302,15.300531
369.641,38303,15.539038
369.701,38304,15.406911
369.740,38305,15.635320
369.781,38306,15.566732
395.811,38307,15.693378
421.818,38308,15.855724
421.923,38309,15.575748
421.998,38310,15.734704
422.066,38311,15.459632
447.670,38312,15.315605
475.700,38313,15.381308
475.751,38314,15.113520
475.785,38315,15.278390
475.818,38316,15.131334
481.499,38317,15.047889
508.080,38318,15.179656
508.134,38319,15.010458
508.174,38320,15.131911
508.212,38321,14.744762
531.685,38322,14.264071
531.733,38323,14.873211
531.767,38324,16.525445
557.714,38325,20.298128
557.764,38326,19.274361
577.692,38327,14.839602
577.758,38328,14.726804
577.803,38329,15.318922
579.882,38330,14.997621
579.934,38331,15.243844
610.742,38332,14.924561
610.805,38333,15.145614
610.860,38334,14.975984
630.828,38335,14.937111
630.879,38336,15.204033
630.913,38337,14.896650
630.945,38338,15.158452
662.690,38339,15.196676
664.550,38340,15.090802
689.758,38341,15.251777
689.817,38342,14.988028
689.850,38343,15.198263
689.882,38344,15.163140
716.669,38345,15.093759
716.738,38346,15.328803
716.784,38347,15.143090
716.827,38348,15.412464
741.717,38349,15.454150
741.760,38350,15.429557
741.793,38351,15.501607
769.722,38352,15.278606
769.814,38353,15.430711
769.927,38354,15.195090
770.016,38355,15.069382
770.108,38356,15.276299
776.690,38357,14.932495
776.765,38358,15.043346
776.822,38359,14.931629
776.878,38360,14.831164
802.886,38361,14.911796
802.937,38362,14.650860
802.994,38363,14.809311
827.709,38364,14.454905
827.759,38365,14.554361
853.110,38366,14.653456
861.541,38367,14.404709
861.647,38368,14.641700
872.765,38369,14.547509
872.835,38370,14.489884
879.819,38371,14.661894
908.356,38372,14.370739
908.413,38373,14.551260
930.684,38374,14.425191
930.735,38375,14.353214
930.768,38376,14.469618
957.906,38377,14.289314
957.951,38378,14.443871
957.987,38379,14.161442
958.023,38380,14.399660
983.638,38381,14.726371
983.684,38382,14.506689
983.716,38383,14.767697
987.535,38384,14.885255
987.568,38385,14.865422
1012.768,38386,14.965094
1012.825,38387,14.597346
1015.067,38388,14.512026
1040.848,38389,14.328620
1040.897,38390,14.185026
1072.707,38391,14.341602
1072.782,38392,14.070930
1072.827,38393,14.268904
1079.735,38394,14.042802
1079.778,38395,14.087734
1109.045,38396,14.281886
1109.154,38397,14.018858
1129.859,38398,13.891058
1129.908,38399,13.393996
1129.942,38400,13.808191
1159.524,38401,16.052904
1159.718,38402,19.238733
1161.908,38403,18.754003
1168.969,38404,14.372615
1169.010,38405,14.340376
1169.119,38406,14.530417
1169.294,38407,14.387616
1194.980,38408,14.568569
1195.033,38409,14.277126
1195.075,38410,14.253830
1222.270,38411,14.548808
1222.337,38412,14.311455
1247.804,38413,14.479932
1247.884,38414,14.312393
1247.931,38415,14.413219
1266.806,38416,14.623886
1266.916,38417,14.444953
1273.386,38418,14.720674
1274.570,38419,14.699037
1295.680,38420,14.814071
1324.417,38421,15.103928
1324.502,38422,14.791353
1324.554,38423,15.216510
1324.607,38424,15.098374
1346.672,38425,15.186507
1362.878,38426,15.312431
1363.026,38427,15.224299
1364.835,38428,15.266851
1364.909,38429,15.423643
1390.768,38430,15.159462
1390.817,38431,15.396093
1390.851,38432,15.225669
1417.977,38433,15.206341
1418.024,38434,15.377485
1449.759,38435,14.997981
1449.806,38436,15.129531
1449.840,38437,14.962209
1455.664,38438,14.931413
1455.699,38439,15.020988
1455.731,38440,14.833832
1455.762,38441,15.027479
1455.792,38442,14.861239
1482.778,38443,14.814215
1482.886,38444,14.994375
1482.971,38445,14.820201
1483.052,38446,15.020844
1508.583,38447,14.827125
1532.673,38448,14.796978
1532.727,38449,14.920378
1535.197,38450,14.711875
1535.250,38451,14.922758
1551.626,38452,14.794815
1551.676,38453,14.844723
1551.710,38454,14.982908
1560.526,38455,14.681151
1560.576,38456,14.814432
1560.925,38457,14.786593
1586.731,38458,14.916267
1586.802,38459,15.077026
1611.424,38460,14.984639
1611.497,38461,15.271611
1611.542,38462,15.153764
1611.589,38463,15.018319
1637.187,38464,14.997260
1668.695,38465,14.553856
1668.744,38466,14.699181
1668.779,38467,14.532580
1668.813,38468,14.485052
1668.847,38469,14.614438
1695.760,38470,14.397929
1695.808,38471,14.539648
1722.413,38472,14.379827
1722.484,38473,14.404564
1745.857,38474,14.444303
1745.904,38475,13.813023
1745.936,38476,13.811003
1774.660,38477,14.822293
1774.710,38478,17.612607
1781.818,38479,20.038201
1781.927,38480,17.383476
1782.011,38481,14.177670
1807.660,38482,14.657856
1807.755,38483,14.562006
1810.617,38484,14.820201
1834.993,38485,14.551332
1835.041,38486,14.762143
1859.969,38487,14.625761
1860.129,38488,14.662543
1860.257,38489,14.925427
1876.791,38490,14.751325
1876.842,38491,14.939058
1883.657,38492,14.792939
1883.699,38493,14.791353
1883.739,38494,14.977859
1910.636,38495,14.745555
1910.694,38496,15.119795
1910.733,38497,14.895064
1910.771,38498,15.045798
1935.757,38499,15.237930
1935.805,38500,15.065199
1935.840,38501,15.418595
1965.695,38502,15.328587
1965.770,38503,15.424076
1965.821,38504,15.584619
1965.872,38505,15.349863
1991.761,38506,15.494899
1991.810,38507,15.289857
1991.843,38508,15.284448
2017.740,38509,15.418090
2017.821,38510,15.076594
2019.800,38511,15.368109
2070.617,38512,15.173525
2070.677,38513,15.134291
2070.713,38514,15.210163
2070.748,38515,15.027912
2076.545,38516,15.131046
2101.768,38517,14.914248
2101.845,38518,14.924850
2101.902,38519,15.030436
2101.954,38520,14.717428
2128.679,38521,15.067939
2152.672,38522,14.835131
2152.747,38523,14.917133
2154.728,38524,15.108039
2154.783,38525,14.893333
2180.013,38526,15.040317
2180.181,38527,15.073709
2180.226,38528,14.819047
2191.075,38529,15.017166
2191.138,38530,14.859219
2191.186,38531,14.811835
2191.232,38532,15.191123
2215.670,38533,14.992716
2215.751,38534,15.217736
2215.809,38535,15.143667
2243.715,38536,15.300531
2243.828,38537,15.413907
2265.697,38538,15.135084
2265.767,38539,15.223866
2265.820,38540,14.962065
2290.711,38541,14.979518
2290.817,38542,14.985721
2314.629,38543,14.773539
2314.716,38544,15.018680
2314.789,38545,14.873644
2340.891,38546,14.868379
2341.035,38547,15.015218
2366.671,38548,14.837799
2366.729,38549,15.073348
2366.768,38550,14.624752
2387.803,38551,14.153365
2387.934,38552,14.761855
2394.976,38553,16.504530
2395.101,38554,20.299426
2395.181,38555,19.513228
2419.656,38556,15.234540
2419.720,38557,15.320942
2444.878,38558,15.101404
2445.004,38559,15.552164
2445.107,38560,15.441601
2471.727,38561,15.492880
2471.794,38562,15.528219
2471.841,38563,15.336376
2471.886,38564,15.710831
2499.987,38565,15.575964
2500.149,38566,15.730665
2500.228,38567,15.874908
2525.666,38568,15.620102
2525.734,38569,15.901232
2525.776,38570,15.731891
2551.789,38571,15.793627
2551.947,38572,16.014824
2576.684,38573,15.954242
2576.803,38574,16.309657
2576.859,38575,16.216765
2608.658,38576,16.314706
2608.752,38577,16.377163
2615.462,38578,16.033215
2615.522,38579,16.304104
2616.848,38580,16.151855
2616.891,38581,16.222895
2616.930,38582,16.245902
2618.643,38583,15.941476
2618.714,38584,16.181064
2643.710,38585,15.970181
2643.779,38586,16.009054
2643.829,38587,16.071512
2670.808,38588,15.688546
2670.870,38589,15.844256
2697.730,38590,15.673544
2697.830,38591,15.690493
2699.551,38592,15.799180
2707.577,38593,15.577695
2707.624,38594,15.889693
2707.663,38595,15.722659
2707.706,38596,15.737228
2732.875,38597,15.929144
2759.575,38598,15.654288
2759.627,38599,15.966358
2759.664,38600,15.847358
2759.708,38601,15.907723
2783.114,38602,15.796800
2809.646,38603,15.648590
2809.711,38604,15.963834
2809.758,38605,15.809494
2809.804,38606,15.889765
2816.629,38607,16.029681
2816.678,38608,15.858681
2816.713,38609,16.220876
2843.742,38610,16.288381
2843.796,38611,16.319177
2868.629,38612,16.290329
2868.709,38613,15.999318
2868.845,38614,16.038119
2893.114,38615,15.686238
2893.175,38616,15.660346
2917.680,38617,15.585628
2917.756,38618,15.323610
2917.795,38619,15.685445
2942.984,38620,15.417152
2943.147,38621,15.487903
2945.932,38622,15.689628
2946.018,38623,15.424509
2970.796,38624,15.394145
2970.980,38625,15.148138
3002.821,38626,14.800079
3002.880,38627,16.258956
3002.923,38628,19.064199
3008.753,38629,20.505189
3033.770,38630,17.927345
3033.828,38631,15.349863
3059.542,38632,16.114785
3059.663,38633,15.857959
3059.803,38634,16.085287
3085.904,38635,16.119112
3086.016,38636,15.913205
3114.119,38637,16.126468
3115.144,38638,15.973931
3115.184,38639,16.013742
3115.221,38640,16.145797
3115.257,38641,15.952799
3137.826,38642,16.315788
3137.894,38643,16.112405
3162.788,38644,16.160221
3162.882,38645,16.369158
3162.929,38646,16.272731
3188.632,38647,16.476979
3188.709,38648,16.295449
3212.101,38649,16.523282
3212.272,38650,16.615958
3212.314,38651,16.363965
3237.727,38652,16.801310
3237.819,38653,16.500275
3239.600,38654,16.605500
3239.665,38655,16.676901
3268.850,38656,16.484841
3268.909,38657,16.746354
3268.949,38658,16.480874
3291.884,38659,16.489024
3292.003,38660,16.518089
3292.104,38661,16.214817
3320.659,38662,16.307998
3320.709,38663,16.047928
3320.745,38664,15.968810
3320.780,38665,16.389857
3327.546,38666,16.134979
3353.687,38667,16.455559
3353.780,38668,16.201835
3353.842,38669,16.292204
3353.940,38670,16.343482
3379.853,38671,16.096177
3379.916,38672,16.316653
3379.964,38673,16.102524
3408.376,38674,16.218423
3408.437,38675,16.339948
3431.115,38676,16.182940
3431.189,38677,16.359926
3435.717,38678,16.084854
3461.650,38679,16.152432
3461.721,38680,16.147167
3461.761,38681,16.104976
3486.676,38682,16.458444
3486.814,38683,16.019945
3517.643,38684,16.367571
3517.691,38685,16.539004
3517.725,38686,16.126324
3517.757,38687,16.297180
3529.665,38688,15.810576
3560.265,38689,15.533989
3560.360,38690,15.386068
3580.657,38691,15.041398
3580.711,38692,15.276515
3580.752,38693,14.972666
3610.826,38694,15.071689
3610.894,38695,15.068805
3631.600,38696,14.893838
3631.649,38697,15.328010
3631.688,38698,14.956367
3631.724,38699,14.574555
3631.759,38700,14.469113
3637.629,38701,15.590244
3637.752,38702,18.846103
3641.576,38703,20.043178
3641.609,38704,17.341646
3667.714,38705,14.827774
3690.774,38706,15.219683
3690.916,38707,15.303921
3691.055,38708,15.153403
3691.182,38709,15.115107
3716.686,38710,15.087340
3742.809,38711,14.937832
3742.859,38712,15.216293
3742.895,38713,14.888645
3742.929,38714,15.038586
3749.651,38715,14.970286
3749.776,38716,14.771447
3749.900,38717,14.991707
3775.687,38718,14.719520
3775.764,38719,14.943529
3775.824,38720,14.893693
3775.880,38721,14.915330
3775.937,38722,15.142874
3801.785,38723,14.961632
3801.966,38724,14.993582
3835.509,38725,15.198479
3835.576,38726,15.021781
3835.621,38727,15.079046
3835.665,38728,15.204610
3835.710,38729,15.046014
3840.634,38730,15.207639
3840.687,38731,14.886698
3840.726,38732,14.988533
3842.622,38733,15.012766
3842.676,38734,14.678338
3867.985,38735,14.685695
3868.054,38736,14.427283
3892.728,38737,14.448703
3894.620,38738,14.461108
3923.587,38739,14.397641
3923.661,38740,14.541956
3923.697,38741,14.349031
3923.732,38742,14.419566
3931.671,38743,14.440769
3931.736,38744,14.308859
3931.789,38745,14.495582
3931.841,38746,14.266379
3961.698,38747,14.378745
3981.630,38748,14.443005
3981.685,38749,14.209331
3981.724,38750,14.418700
3981.761,38751,14.225991
4008.318,38752,14.240488
4026.827,38753,14.211423
4027.045,38754,14.047418
4031.173,38755,14.426706
4031.243,38756,14.152716
4057.814,38757,14.429230
4057.879,38758,14.644152
4057.919,38759,14.596408
4080.691,38760,14.354873
4080.741,38761,13.979263
4080.776,38762,14.043091
4080.810,38763,13.946015
4108.160,38764,13.736285
4109.177,38765,13.970104
4109.412,38766,13.799248
4132.688,38767,13.814321
4132.739,38768,13.822399
4135.615,38769,13.808119
4141.851,38770,13.911036
4142.004,38771,13.792829
4142.131,38772,13.705417
4142.254,38773,13.299877
4167.644,38774,13.413469
4167.703,38775,15.259999
4167.745,38776,18.543048
4192.641,38777,18.680151
4192.694,38778,14.775558
4194.579,38779,14.017199
4220.696,38780,14.549673
4220.788,38781,14.182141
4220.861,38782,14.232554
4220.899,38783,14.347588
4248.707,38784,14.189930
4248.801,38785,14.352997
4248.876,38786,14.300493
4272.681,38787,14.332082
4272.756,38788,14.606649
4297.735,38789,14.435216
4297.837,38790,14.623598
4299.552,38791,14.554145
4325.520,38792,14.645956
4325.588,38793,14.775847
4325.629,38794,14.651365
4325.670,38795,14.938986
4351.742,38796,14.733655
4351.789,38797,14.822004
4351.822,38798,14.852079
4358.524,38799,14.793228
4358.574,38800,15.058780
4359.584,38801,14.849555
4385.835,38802,14.977571
4385.911,38803,15.069886
4385.947,38804,14.888140
4385.983,38805,15.182901
4411.638,38806,14.795247
4411.700,38807,14.828856
4411.747,38808,14.745988
4436.013,38809,14.541740
4436.080,38810,14.763730
4446.722,38811,14.477912
4446.782,38812,14.581839
4446.828,38813,14.635498
4446.872,38814,14.433413
4446.917,38815,14.744041
4455.637,38816,14.587537
4456.599,38817,14.768923
4457.656,38818,14.859796
4479.890,38819,14.679997
4480.094,38820,14.980960
4506.622,38821,14.798349
4506.679,38822,14.927590
4506.722,38823,15.010458
4531.695,38824,14.762720
4532.207,38825,14.939491
4556.621,38826,14.909199
4556.732,38827,14.838376
4556.802,38828,15.175761
4560.212,38829,15.070824
4560.395,38830,15.164366
4560.447,38831,15.333852
4560.813,38832,15.445207
4586.771,38833,15.681622
4613.330,38834,15.255023
4614.300,38835,15.324259
4614.344,38836,15.178862
4614.386,38837,15.100971
4636.753,38838,15.221919
4636.834,38839,14.937183
4636.889,38840,14.935163
4666.644,38841,15.020700
4666.695,38842,15.045942
4671.578,38843,15.238867
4671.614,38844,15.163500
4671.647,38845,15.364215
4674.545,38846,14.995962
4674.582,38847,14.497096
4674.615,38848,15.253436
4674.649,38849,17.037725
4701.741,38850,20.550337
4725.681,38851,19.875928
4725.731,38852,15.594427
4757.998,38853,15.641811
4759.819,38854,15.693739
4759.875,38855,15.879452
4762.592,38856,15.975950
4762.648,38857,15.753455
4762.699,38858,15.998452
4762.749,38859,15.796512
4789.087,38860,15.981360
4789.221,38861,15.946958
4789.263,38862,15.870220
4814.716,38863,16.307998
4814.800,38864,16.055356
4847.846,38865,16.299200
4849.585,38866,16.360864
4849.621,38867,16.285208
4874.689,38868,16.479071
4874.753,38869,16.289103
4874.797,38870,16.715197
4874.840,38871,16.708418
4874.882,38872,16.716135
4900.671,38873,16.963656
4900.738,38874,16.803546
4926.722,38875,17.100327
4926.857,38876,17.085181
4926.987,38877,16.931562
4940.001,38878,17.224881
4940.061,38879,16.964233
4964.664,38880,17.116843
4964.716,38881,16.975556
4964.751,38882,16.666804
4990.679,38883,16.815014
4990.729,38884,16.535975
5021.040,38885,16.551481
5021.194,38886,16.563525
5021.397,38887,16.382356
5027.683,38888,16.554510
5027.733,38889,16.325812
5056.580,38890,16.388630
5057.366,38891,16.534388
5057.426,38892,16.296171
5079.678,38893,16.637450
5079.731,38894,16.542682
5106.999,38895,16.495875
5107.787,38896,16.579897
5107.838,38897,16.397501
5107.919,38898,16.670410
5107.967,38899,16.456857
5136.598,38900,16.688296
5136.658,38901,16.730126
5136.699,38902,16.568862
5136.738,38903,16.786021
5136.777,38904,16.532946
5141.658,38905,16.843141
5141.729,38906,16.590571
5141.780,38907,16.376875
5141.831,38908,16.523498
5167.650,38909,16.067329
5194.655,38910,16.305546
5194.718,38911,16.369662
5194.756,38912,15.925033
5194.795,38913,16.177603
5219.695,38914,16.031051
5238.727,38915,16.260615
5238.798,38916,16.226213
5238.847,38917,16.225780
5238.896,38918,16.226429
5246.691,38919,15.615703
5270.628,38920,15.937005
5270.682,38921,17.273058
5295.785,38922,18.384020
5295.831,38923,21.769625
5295.863,38924,20.686430
5323.771,38925,16.307494
5323.832,38926,16.665217
5347.822,38927,16.392453
5347.865,38928,16.567853
5349.788,38929,16.567708
5349.826,38930,16.423970
5349.859,38931,16.720967
5355.290,38932,16.574488
5355.336,38933,16.724212
5355.374,38934,16.858142
5355.412,38935,16.540230
5380.774,38936,16.498977
5380.848,38937,16.204071
5380.901,38938,16.308936
5408.132,38939,16.386467
5408.211,38940,16.458011
5431.884,38941,16.569584
5431.933,38942,16.485129
5431.966,38943,16.812345
5459.797,38944,17.067656
5459.864,38945,17.062030
5484.876,38946,17.137469
5484.924,38947,16.566699
5484.957,38948,17.102274
5511.749,38949,17.194157
5511.813,38950,17.020344
5534.429,38951,17.145186
5536.719,38952,17.131916
5536.758,38953,17.014286
5562.835,38954,17.013853
5562.889,38955,16.783280
5562.926,38956,16.885260
5562.962,38957,16.749960
5562.997,38958,16.799435
5581.981,38959,16.719380
5582.069,38960,16.216404
5586.756,38961,16.743685
5586.794,38962,16.812561
5586.825,38963,17.009670
5615.007,38964,16.843285
5615.065,38965,16.779025
5615.108,38966,16.806070
5639.664,38967,16.625334
5639.723,38968,16.780756
5664.558,38969,16.720462
5664.601,38970,16.564607
5664.640,38971,16.667164
5664.678,38972,16.590066
5682.664,38973,16.840977
5690.768,38974,17.059217
5690.847,38975,17.594648
5690.892,38976,17.653788
5690.935,38977,17.057486
5716.743,38978,16.975484
5741.702,38979,16.687791
5741.784,38980,15.751075
5741.846,38981,16.721328
5741.905,38982,16.489240
5767.830,38983,16.572901
5767.878,38984,16.544413
5767.912,38985,16.259388
5785.052,38986,16.457218
5785.160,38987,16.235156
5814.382,38988,16.292853
5814.435,38989,15.975446
5814.481,38990,15.755547
5835.748,38991,15.461507
5835.813,38992,15.216149
5859.710,38993,16.859801
5859.785,38994,20.208913
5859.842,38995,21.304296
5884.866,38996,18.187488
5884.919,38997,15.816922
5884.956,38998,16.348459
5884.993,38999,16.230468
5910.762,39000,15.956045
5910.851,39001,16.526743
5910.892,39002,16.594538
5937.638,39003,15.885005
5937.688,39004,15.593706
5962.674,39005,15.441385
5962.719,39006,15.532186
5962.751,39007,15.475354
5994.824,39008,15.417513
5994.879,39009,15.686382
6021.652,39010,15.873610
6021.711,39011,15.832861
6021.752,39012,16.252537
6047.059,39013,17.079772
6047.107,39014,16.082474
6075.878,39015,15.756845
6075.932,39016,16.389352
6075.969,39017,16.313263
6077.695,39018,16.165270
6077.773,39019,16.394472
6084.882,39020,16.188637
6085.044,39021,16.221813
6085.184,39022,16.453901
6113.493,39023,16.230540
6135.006,39024,16.288742
6135.168,39025,16.072738
6135.264,39026,16.302084
6164.355,39027,16.521262
6188.959,39028,15.985759
6189.074,39029,15.726698
6189.174,39030,15.383616
6189.255,39031,15.508963
6194.668,39032,15.614044
6194.735,39033,15.448092
6194.783,39034,15.599476
6220.664,39035,16.529989
6220.765,39036,15.943496
6220.798,39037,15.150086
6246.695,39038,14.710360
6246.744,39039,15.088133
6279.614,39040,15.557934
6279.661,39041,15.878370
6279.697,39042,15.543726
6279.732,39043,15.503337
6279.767,39044,16.216404
6282.572,39045,16.502799
6282.630,39046,16.209625
6309.838,39047,15.907074
6309.919,39048,15.877288
6309.967,39049,16.139955
6335.645,39050,16.075334
6335.698,39051,16.050019
6359.663,39052,15.820528
6359.748,39053,15.534278
6359.813,39054,15.869643
6381.663,39055,15.602937
6381.699,39056,15.568968
6385.705,39057,15.384120
6385.743,39058,15.135734
6410.667,39059,15.355127
6410.740,39060,15.211605
6410.797,39061,15.321447
6436.853,39062,15.116982
6436.902,39063,14.734521
6465.807,39064,14.493779
6465.871,39065,15.459920
6465.911,39066,18.236387
6471.781,39067,20.123449
6471.892,39068,18.007761
6496.754,39069,14.914104
6496.799,39070,15.528075
6496.832,39071,15.284232
6522.679,39072,14.542100
6522.740,39073,14.889150
6557.722,39074,15.481845
6557.774,39075,15.072843
6557.813,39076,15.002236
6558.558,39077,15.312936
6558.604,39078,15.245719
6562.660,39079,15.475571
6562.714,39080,15.182685
6589.771,39081,15.440447
6589.825,39082,15.541057
6589.857,39083,15.190618
6616.343,39084,15.166602
6616.402,39085,14.876240
6640.901,39086,15.375033
6640.965,39087,15.805960
6641.010,39088,15.879668
6666.647,39089,16.193253
6666.705,39090,15.897771
6692.683,39091,16.054202
6692.737,39092,16.140027
6692.776,39093,16.218640
6717.621,39094,16.032133
6717.669,39095,15.490428
6743.660,39096,15.768745
6743.712,39097,15.251994
6743.746,39098,15.599043
6770.602,39099,15.652196
6770.651,39100,15.160543
6770.685,39101,15.227905
6770.718,39102,14.847968
6770.750,39103,15.193791
6777.570,39104,15.515742
6777.604,39105,14.646965
6777.661,39106,15.808412
6777.715,39107,14.754138
6784.205,39108,14.302152
6784.379,39109,15.011107
6784.493,39110,14.579171
6810.912,39111,14.844867
6810.995,39112,14.913671
6811.050,39113,14.869605
6835.671,39114,15.547836
6835.735,39115,15.714870
6835.781,39116,15.361907
6835.824,39117,15.311061
6861.642,39118,15.111717
6861.720,39119,15.473984
6861.779,39120,15.415710
6894.839,39121,15.543149
6895.027,39122,15.255528
6895.096,39123,15.204393
6920.644,39124,15.505862
6920.696,39125,15.499227
6920.732,39126,15.509035
6920.766,39127,15.612818
6946.793,39128,15.012117
6946.867,39129,15.289353
6946.923,39130,15.378495
6972.324,39131,15.242690
6972.404,39132,15.399843
7003.265,39133,14.918070
7003.369,39134,14.653312
7003.416,39135,15.092028
7010.621,39136,17.072055
7010.690,39137,20.453261
7036.659,39138,19.172670
7036.735,39139,15.453790
7036.788,39140,15.514300
7061.666,39141,15.537812
7061.757,39142,15.823197
7086.786,39143,15.452131
7086.849,39144,15.484730
7086.889,39145,15.468935
7107.877,39146,15.505862
7107.937,39147,15.774010
7112.610,39148,15.385563
7112.667,39149,15.805311
7137.632,39150,15.789155
7166.324,39151,15.746892
7166.381,39152,16.308864
7166.422,39153,16.042519
7166.469,39154,16.347305
7175.597,39155,16.305186
7181.609,39156,16.183300
7181.663,39157,16.675386
7181.699,39158,16.374206
7181.735,39159,16.703874
7200.807,39160,16.741305
7200.880,39161,16.652019
7200.927,39162,16.930769
7200.972,39163,16.577517
7201.017,39164,17.095278
7208.521,39165,16.584224
7209.617,39166,16.299272
7222.631,39167,17.367609
7228.600,39168,16.389929
7228.647,39169,16.387260
7246.709,39170,16.388053
7246.766,39171,15.830121
7246.802,39172,16.134618
7267.711,39173,15.792762
7267.806,39174,15.980927
7272.604,39175,16.078724
7272.650,39176,15.843607
7293.690,39177,16.966685
7314.694,39178,16.214601
7314.765,39179,15.613756
7314.818,39180,15.632435
7314.869,39181,15.852767
7336.706,39182,16.299921
7340.745,39183,15.913493
7340.838,39184,16.233497
7362.761,39185,16.316292
7362.841,39186,16.310739
7380.672,39187,16.556241
7380.724,39188,16.233713
7380.776,39189,16.562155
7408.986,39190,16.667669
7409.043,39191,16.674809
7409.083,39192,16.971590
7409.323,39193,16.402406
7450.852,39194,16.552851
7450.970,39195,16.353002
7451.032,39196,16.019728
7451.075,39197,16.581412
7451.118,39198,16.246767
7469.629,39199,16.603697
7474.569,39200,16.575209
7474.629,39201,15.993765
7487.701,39202,16.772750
7487.771,39203,16.501789
7502.460,39204,16.281890
7516.638,39205,15.779780
7516.687,39206,15.402223
7529.695,39207,17.308470
7529.744,39208,20.068781
7538.686,39209,21.723467
7561.642,39210,18.802397
7561.705,39211,16.062785
7567.816,39212,16.920383
7567.863,39213,16.781982
7593.035,39214,17.143311
7593.096,39215,16.604058
7593.139,39216,16.810326
7608.460,39217,17.036643
7609.559,39218,16.850425
7633.649,39219,16.578310
7633.711,39220,16.886198
7633.758,39221,16.931418
7648.776,39222,16.957454
7648.882,39223,16.905887
7671.625,39224,16.882808
7671.674,39225,17.266206
7671.709,39226,16.766548
7691.759,39227,17.827745
7691.884,39228,17.578493
7707.114,39229,17.002097
7707.350,39230,17.474422
7714.479,39231,17.576402
7736.822,39232,17.706942
7736.893,39233,17.713072
7742.624,39234,17.553827
7742.670,39235,17.743579
7765.592,39236,17.474205
7769.569,39237,17.601139
7769.611,39238,17.525989
7782.956,39239,17.341285
7783.069,39240,17.324192
7796.667,39241,17.073858
7811.643,39242,17.065348
7811.691,39243,17.000727
7825.670,39244,16.758975
7825.754,39245,16.953631
7838.669,39246,16.648196
7838.785,39247,16.926874
7851.953,39248,16.905166
7865.658,39249,16.790853
7865.716,39250,17.084244
7888.780,39251,16.798786
7888.943,39252,17.020344
7888.991,39253,16.848550
7911.619,39254,16.871485
7911.675,39255,17.202307
7917.675,39256,16.692695
7917.719,39257,17.087850
7931.676,39258,17.012338
7945.679,39259,17.118862
7945.755,39260,17.347560
7959.625,39261,17.190911
7959.682,39262,17.432735
7968.658,39263,17.371792
7991.689,39264,17.124992
7991.743,39265,17.236564
7997.671,39266,16.779097
7997.728,39267,16.698537
8011.636,39268,16.446328
8026.694,39269,16.223977
8026.760,39270,16.445462
8039.770,39271,16.219289
8039.825,39272,16.583792
8058.431,39273,16.535759
8058.517,39274,16.440414
8067.669,39275,16.629084
8080.648,39276,16.336270
8080.701,39277,16.133104
8092.674,39278,15.859474
8092.737,39279,17.251494
8108.752,39280,21.153129
8120.666,39281,21.930601
8120.725,39282,18.131233
8135.729,39283,15.845915
8135.781,39284,16.624829
8142.991,39285,16.417840
8166.699,39286,15.972993
8166.786,39287,16.214817
8174.645,39288,16.361729
8174.709,39289,16.186474
8183.692,39290,16.365191
8208.902,39291,16.123439
8209.020,39292,16.400242
8215.934,39293,16.590427
8216.022,39294,16.501357
8224.648,39295,16.688224
8237.722,39296,16.290473
8237.785,39297,16.560280
8264.314,39298,16.544630
8264.374,39299,16.626992
8285.929,39300,17.068954
8286.019,39301,16.955651
8286.109,39302,17.349795
8292.788,39303,17.381890
8292.857,39304,17.469012
8319.518,39305,17.800267
8319.702,39306,17.495048
8319.839,39307,17.723385
8356.864,39308,17.655086
8356.955,39309,17.627896
8356.998,39310,17.695114
8357.055,39311,17.278900
8360.754,39312,17.474566
8372.609,39313,17.305296
8372.652,39314,17.141003
8397.679,39315,17.452280
8397.728,39316,17.625661
8397.763,39317,17.410810
8422.921,39318,17.215000
8423.015,39319,16.635359
8427.731,39320,17.056260
8427.816,39321,17.017098
8442.848,39322,16.908267
8457.818,39323,17.271904
8457.876,39324,17.012194
8469.655,39325,17.268082
8469.725,39326,17.163722
8494.659,39327,17.094557
8494.744,39328,17.651336
8494.790,39329,17.365734
8508.022,39330,17.597677
8508.075,39331,17.572868
8533.135,39332,17.626742
8533.293,39333,17.926191
8533.379,39334,17.722231
8550.855,39335,17.835174
8550.954,39336,17.787574
8564.696,39337,17.500746
8564.783,39338,17.624435
8573.680,39339,17.194806
8596.665,39340,17.281640
8596.717,39341,17.264764
8608.647,39342,17.150595
8608.700,39343,17.219399
8614.606,39344,16.994164
8628.668,39345,17.153697
8628.730,39346,17.091961
8653.258,39347,16.949953
8653.358,39348,16.844367
8659.117,39349,16.272875
8667.607,39350,17.637416
8667.649,39351,20.185762
8691.689,39352,22.316091
8691.743,39353,20.449439
8691.778,39354,16.706470
8716.886,39355,17.443770
8716.956,39356,17.494904
8722.687,39357,17.450694
8722.757,39358,17.570415
8748.760,39359,17.297219
8748.824,39360,17.518993
8748.866,39361,17.430283
8762.740,39362,17.419898
8762.810,39363,17.580945
8787.715,39364,17.473700
8787.772,39365,17.589528
8787.812,39366,17.623785
8811.630,39367,17.730453
8811.696,39368,17.884361
8820.653,39369,17.592485
8820.709,39370,17.917825
8829.751,39371,17.763918
8842.776,39372,18.117458
8842.825,39373,18.477129
8867.622,39374,18.257230
8867.671,39375,18.479941
8867.713,39376,18.603702
8892.686,39377,18.455781
8892.749,39378,18.483475
8900.557,39379,17.955256
8900.594,39380,18.011872
8910.055,39381,18.188209
8922.699,39382,18.395271
8922.758,39383,18.323293
8947.668,39384,17.837915
8947.720,39385,17.800411
8971.697,39386,17.532335
8971.780,39387,17.472619
8971.843,39388,17.648307
8980.165,39389,17.452785
8980.224,39390,17.577988
8993.332,39391,17.582965
8993.393,39392,17.428408
9008.638,39393,17.474566
9020.622,39394,17.276808
9020.676,39395,17.421124
9045.775,39396,17.237214
9045.861,39397,17.000871
9045.901,39398,17.217524
9061.690,39399,16.898963
9061.773,39400,17.192354
9074.653,39401,17.208004
9074.701,39402,17.196248
9082.853,39403,17.327221
9108.588,39404,17.175550
9108.656,39405,17.625661
9112.603,39406,17.658476
9112.661,39407,17.452136
9126.669,39408,17.470455
9141.824,39409,16.968488
9141.898,39410,17.092249
9158.742,39411,16.973537
9158.822,39412,16.840977
9178.728,39413,17.031595
9178.837,39414,16.751619
9178.885,39415,17.105303
9193.946,39416,16.968705
9194.120,39417,16.884971
9218.711,39418,17.242623
9218.763,39419,17.014502
9218.798,39420,16.797776
9233.741,39421,16.638892
9257.718,39422,17.284742
9257.838,39423,20.085225
9257.918,39424,22.990572
9260.198,39425,21.343531
9273.251,39426,17.347992
9273.299,39427,17.380086
9298.701,39428,17.345757
9298.792,39429,17.349074
9298.841,39430,17.428480
9322.675,39431,17.608063
9322.742,39432,17.389462
9327.541,39433,17.569406
9327.576,39434,17.451847
9341.651,39435,17.371792
9376.708,39436,17.672612
9376.799,39437,17.601644
9376.848,39438,18.051467
9376.888,39439,17.776106
9400.711,39440,17.656601
9400.760,39441,17.854575
9400.794,39442,17.736872
9408.767,39443,18.009131
9408.815,39444,17.849887
9435.802,39445,18.148615
9435.856,39446,18.279083
9435.889,39447,18.304614
9450.693,39448,18.751407
9450.776,39449,18.651519
9465.605,39450,18.743474
9465.656,39451,18.494870
9472.578,39452,17.997880
9496.686,39453,18.004371
9496.780,39454,17.769399
9503.730,39455,17.805099
9503.848,39456,17.829621
9517.015,39457,17.471032
9530.707,39458,17.663524
9530.765,39459,17.412397
9545.165,39460,17.338184
9545.426,39461,17.297579
9553.574,39462,17.163000
9576.696,39463,17.476225
9576.743,39464,17.507670
9583.176,39465,17.465406
9583.384,39466,17.726992
9596.758,39467,17.481922
9611.654,39468,17.580657
9611.715,39469,17.457834
9626.464,39470,17.511059
9626.579,39471,17.694969
9648.603,39472,17.613688
9648.641,39473,17.929942
9648.675,39474,17.868783
9662.667,39475,18.074329
9662.738,39476,18.458954
9688.023,39477,18.432053
9688.167,39478,18.411137
9711.630,39479,18.272592
9711.715,39480,18.083705
9711.780,39481,18.163255
9719.575,39482,17.754253
9719.612,39483,17.905637
9727.699,39484,17.791540
9751.669,39485,17.518127
9751.724,39486,17.818297
9759.938,39487,17.652129
9760.008,39488,17.809859
9771.763,39489,17.522527
9785.631,39490,17.295055
9785.678,39491,17.072632
9799.662,39492,16.676324
9799.726,39493,18.115006
9809.993,39494,21.021291
9832.657,39495,23.040048
9832.716,39496,20.505117
9837.573,39497,17.060516
9837.614,39498,17.998025
9852.862,39499,17.712207
9865.389,39500,17.693094
9865.469,39501,17.754253
9886.917,39502,17.720284
9886.984,39503,17.804666
9910.892,39504,17.695835
9911.000,39505,17.640806
9911.084,39506,17.639219
9917.572,39507,17.422133
9917.622,39508,17.551952
9941.662,39509,17.615852
9941.725,39510,17.529667
9941.770,39511,17.689128
9966.664,39512,17.535653
9966.719,39513,17.849959
9972.611,39514,17.837770
9972.773,39515,17.914219
9988.297,39516,18.171405
10001.722,39517,18.040648
10001.798,39518,18.143350
10014.641,39519,18.259105
10014.692,39520,18.064953
10022.621,39521,18.354955
10047.032,39522,18.276126
10047.080,39523,18.300935
10057.736,39524,18.423398
10057.805,39525,18.257735
10066.725,39526,18.354089
10080.656,39527,18.262134
10080.702,39528,18.276486
10094.769,39529,18.196431
10094.802,39530,18.070074
10117.687,39531,18.331082
10117.744,39532,18.190950
10117.783,39533,18.263576
10132.749,39534,18.230545
10132.796,39535,18.200542
10157.718,39536,18.307210
10158.945,39537,18.021248
10158.996,39538,18.073752
10172.672,39539,18.123372
10172.735,39540,17.873975
10196.648,39541,18.377384
10196.681,39542,18.369090
10196.712,39543,18.430971
10221.769,39544,18.331010
10221.824,39545,18.146018
10227.678,39546,18.388852
10227.716,39547,18.394044
10241.836,39548,18.619857
10257.767,39549,18.532662
10257.822,39550,18.282761
10270.262,39551,18.525378
10270.355,39552,18.274683
10277.745,39553,18.580551
10295.695,39554,18.711524
10295.729,39555,17.971700
10309.638,39556,18.008122
10309.696,39557,17.954535
10334.652,39558,17.849310
10334.699,39559,18.011223
10334.733,39560,17.836039
10349.704,39561,18.050818
10349.818,39562,17.589456
10362.642,39563,17.123694
10362.708,39564,18.209846
10376.641,39565,20.665299
10390.556,39566,23.343752
10390.589,39567,21.210322
10405.228,39568,17.667203
10405.298,39569,18.264875
10413.740,39570,17.935856
10436.818,39571,18.373418
10436.867,39572,18.150706
10442.733,39573,18.021680
10442.778,39574,18.287232
10457.854,39575,17.971484
10471.719,39576,18.242301
10471.797,39577,18.094379
10484.599,39578,18.182512
10484.632,39579,18.235449
10492.679,39580,18.170179
10517.579,39581,18.386977
10517.645,39582,18.370461
10523.686,39583,18.394694
10523.750,39584,18.535186
10536.711,39585,18.434000
10550.659,39586,18.757970
10550.697,39587,18.820860
10565.129,39588,18.788982
10565.250,39589,18.830452
10578.664,39590,18.714409
10578.743,39591,18.965753
10591.784,39592,18.746575
10620.715,39593,18.660245
10620.767,39594,18.606515
10620.801,39595,18.527902
10620.835,39596,18.768428
10629.632,39597,18.406089
10643.686,39598,18.233502
10643.733,39599,18.134551
10667.651,39600,17.861498
10667.720,39601,18.088465
10667.773,39602,17.820173
10691.648,39603,17.760384
10691.713,39604,18.013026
10700.636,39605,17.757138
10700.675,39606,17.938308
10713.605,39607,17.706148
10724.661,39608,17.751873
10724.698,39609,17.744012
10738.911,39610,17.298301
10738.975,39611,17.570488
10751.770,39612,17.185863
10766.705,39613,17.193147
10766.810,39614,17.390183
10779.608,39615,17.225963
10779.642,39616,17.249835
10805.324,39617,17.507670
10805.372,39618,17.359171
10805.407,39619,17.731752
10817.696,39620,17.474133
10817.732,39621,17.434971
10842.214,39622,17.311859
10842.391,39623,16.965964
10843.797,39624,17.119872
10867.971,39625,16.755874
10868.068,39626,16.735896
10876.685,39627,16.875812
10876.781,39628,16.642715
10885.631,39629,16.912666
10897.665,39630,16.804412
10897.712,39631,16.951900
10921.719,39632,16.892544
10921.775,39633,16.360647
10921.810,39634,16.406084
10946.657,39635,17.042990
10946.707,39636,19.605616
10959.253,39637,22.705908
10959.345,39638,20.584523
10965.584,39639,16.932788
10977.678,39640,17.428696
10977.726,39641,17.290872
11001.617,39642,17.358306
11001.657,39643,17.307676
11001.691,39644,17.397612
11026.734,39645,17.254306
11026.784,39646,17.421412
11035.713,39647,17.578277
11035.753,39648,17.304431
11049.686,39649,17.452064
11058.113,39650,17.352248
11058.171,39651,17.677660
11081.885,39652,17.803296
11081.934,39653,17.599553
11090.642,39654,17.976172
11090.681,39655,17.778414
11099.815,39656,17.720284
11112.775,39657,17.870946
11112.825,39658,17.720933
11130.865,39659,18.155899
11130.913,39660,18.185469
11139.780,39661,18.151427
11152.940,39662,18.183521
11153.377,39663,18.001991
11176.862,39664,18.159938
11176.956,39665,17.909676
11177.026,39666,17.803513
11203.090,39667,17.710187
11203.195,39668,17.366383
11208.194,39669,17.520363
11208.244,39670,17.256254
11221.764,39671,17.036860
11235.769,39672,17.308542
11235.815,39673,17.072127
11250.789,39674,17.141075
11250.844,39675,17.006929
11263.401,39676,17.066430
11263.484,39677,17.189469
11276.708,39678,16.979018
11290.717,39679,17.230795
11290.826,39680,17.117419
11306.822,39681,17.216731
11306.892,39682,17.272842
11315.897,39683,17.109198
11336.932,39684,17.381385
11336.991,39685,17.264692
11343.733,39686,17.488341
11343.791,39687,17.616141
11358.434,39688,17.600418
11370.567,39689,18.133613
11370.606,39690,17.907945
11385.976,39691,17.823851
11386.189,39692,17.664318
11392.707,39693,17.313951
11416.677,39694,17.331549
11416.778,39695,16.833044
11426.584,39696,16.771885
11426.674,39697,16.843429
11436.477,39698,16.627858
11447.643,39699,16.732867
11447.691,39700,16.545856
11471.663,39701,16.623026
11471.712,39702,16.541673
11495.672,39703,15.985182
11495.737,39704,15.742637
11495.807,39705,15.524758
11519.612,39706,17.212692
11519.734,39707,20.931428
11519.819,39708,20.930129
11519.899,39709,17.337823
11529.685,39710,16.228304
11546.896,39711,16.656995
11547.016,39712,16.633844
11561.666,39713,16.366489
11561.727,39714,16.381923
11569.677,39715,16.467315
11582.981,39716,16.206668
11583.120,39717,16.359638
11607.403,39718,16.079661
11608.723,39719,16.091273
11610.631,39720,16.160221
11623.680,39721,15.999102
11623.762,39722,16.183877
11646.752,39723,16.031124
11646.806,39724,16.177242
11646.844,39725,16.283116
11671.720,39726,16.211788
11671.835,39727,16.442073
11677.578,39728,16.236887
11677.651,39729,16.306340
11691.645,39730,16.349108
11709.081,39731,16.293214
11709.184,39732,16.595259
11719.938,39733,16.438250
11720.113,39734,16.553717
11732.697,39735,16.606870
11732.771,39736,16.363388
11746.740,39737,16.619564
11760.661,39738,16.391660
11760.729,39739,16.406372
11775.947,39740,16.444885
11776.015,39741,16.155533
11782.638,39742,16.372908
11811.418,39743,16.081104
11811.518,39744,16.073675
11812.715,39745,16.201619
11812.807,39746,15.950852
11827.709,39747,16.278140
11841.750,39748,15.979845
11841.799,39749,16.121708
11856.242,39750,16.082835
11856.344,39751,15.959435
11863.271,39752,16.186185
11887.740,39753,16.007468
11887.813,39754,16.235733
11893.647,39755,16.304032
11893.728,39756,16.020882
11908.888,39757,16.564463
11920.759,39758,16.482533
11920.867,39759,16.971085
11934.701,39760,16.939207
11934.752,39761,16.485057
11962.962,39762,16.684545
11975.621,39763,16.225419
11975.727,39764,16.064444
11975.775,39765,15.876927
11975.823,39766,15.647004
11990.696,39767,16.033504
11990.781,39768,15.909382
11999.609,39769,15.964483
12012.676,39770,15.978763
12012.791,39771,15.847358
12036.616,39772,16.107789
12036.664,39773,15.848439
12036.699,39774,15.551010
12061.923,39775,15.350656
12061.984,39776,16.014175
12071.598,39777,18.553145
12071.644,39778,20.925946
12079.571,39779,19.435697
12095.235,39780,15.423787
12095.656,39781,15.940178
12116.767,39782,16.352498
12116.994,39783,16.219145
12117.067,39784,16.208687
12141.690,39785,16.187267
12141.738,39786,15.928711
12148.193,39787,16.169525
12148.255,39788,16.042591
12172.639,39789,16.105048
12172.697,39790,16.227294
12172.737,39791,16.133176
12187.817,39792,16.336991
12187.874,39793,16.163467
12211.740,39794,16.384159
12211.837,39795,16.434933
12211.888,39796,16.361080
12236.654,39797,16.863191
12236.709,39798,16.756956
12242.645,39799,16.864417
12242.712,39800,16.972383
12257.893,39801,16.815014
12270.673,39802,17.228054
12270.739,39803,16.843213
12284.673,39804,17.001809
12284.736,39805,16.954785
12292.583,39806,16.789410
12318.586,39807,16.967983
12319.680,39808,16.706543
12322.569,39809,16.668246
12322.606,39810,16.544702
12336.641,39811,16.268115
12351.755,39812,16.449429
12351.831,39813,16.376586
12365.934,39814,16.217125
12365.996,39815,16.605933
12394.665,39816,16.387044
12394.730,39817,16.507054
12394.779,39818,16.667381
12410.744,39819,16.386683
12417.626,39820,16.641994
12417.723,39821,16.299416
12417.783,39822,16.245685
12431.579,39823,16.206523
12445.792,39824,15.922508
12445.854,39825,16.115650
12460.759,39826,15.966503
12460.822,39827,16.215683
12467.660,39828,16.355166
12492.773,39829,16.297541
12492.840,39830,16.720390
12497.707,39831,16.625117
12497.745,39832,16.568646
12512.713,39833,16.518954
12525.781,39834,16.053770
12525.850,39835,16.190440
12539.708,39836,15.945804
12539.776,39837,16.019223
12548.826,39838,16.013454
12571.663,39839,15.881615
12571.713,39840,16.224698
12577.565,39841,16.067689
12577.621,39842,16.185392
12591.796,39843,16.340814
12607.465,39844,16.048216
12607.521,39845,15.931812
12620.312,39846,15.592624
12620.426,39847,17.026763
12643.659,39848,20.040004
12643.709,39849,21.567540
12643.742,39850,19.858258
12659.724,39851,17.135089
12659.786,39852,17.158312
12681.728,39853,17.231877
12681.797,39854,16.588335
12681.835,39855,16.439332
12708.903,39856,16.448780
12708.970,39857,16.754287
12712.703,39858,16.938991
12712.759,39859,16.812201
12728.238,39860,16.957382
12740.980,39861,16.869537
12741.125,39862,17.239161
12758.874,39863,17.234112
12758.955,39864,17.049986
12762.625,39865,17.075084
12786.710,39866,16.879995
12786.789,39867,17.419465
12795.921,39868,17.961747
12795.984,39869,17.803801
12824.864,39870,18.345507
12824.921,39871,18.107794
12824.962,39872,18.166140
12834.793,39873,18.078080
12834.900,39874,17.755768
12858.622,39875,17.945376
12858.674,39876,17.935856
12885.639,39877,18.132243
12885.730,39878,18.103611
12885.787,39879,17.754181
12900.690,39880,17.893376
12900.779,39881,17.611453
12900.833,39882,17.631070
12923.824,39883,17.532984
12923.903,39884,17.352608
12947.678,39885,17.645710
12947.733,39886,17.408070
12949.558,39887,17.546399
12975.100,39888,17.695114
12975.161,39889,17.369340
12999.667,39890,17.594865
12999.730,39891,17.480913
12999.771,39892,17.708240
13025.677,39893,17.711702
13025.734,39894,17.537312
13030.995,39895,17.780722
13031.056,39896,17.767812
13031.099,39897,18.023772
13057.368,39898,18.014036
13057.611,39899,18.112770
13082.777,39900,18.521844
13082.926,39901,18.056948
13083.052,39902,17.977326
13109.360,39903,17.874841
13109.433,39904,17.647658
13137.065,39905,17.827673
13137.122,39906,17.470599
13137.165,39907,17.613833
13137.205,39908,17.517190
13137.245,39909,17.448818
13140.722,39910,17.431581
13140.783,39911,17.435692
13169.733,39912,17.437495
13169.789,39913,17.528369
13169.843,39914,17.023445
13191.722,39915,16.620285
13191.781,39916,17.234401
13225.656,39917,19.025325
13225.706,39918,22.234665
13225.740,39919,20.950035
13230.558,39920,16.906896
13230.596,39921,17.373019
13258.560,39922,17.426821
13258.618,39923,17.717832
13258.661,39924,17.593206
13281.670,39925,17.667275
13281.720,39926,17.494327
13309.572,39927,17.293180
13309.639,39928,17.332558
13309.684,39929,17.130618
13334.647,39930,17.325635
13334.695,39931,17.357440
13339.632,39932,17.437495
13339.687,39933,17.760528
13365.626,39934,17.498438
13365.700,39935,17.638498
13365.751,39936,17.653860
13365.804,39937,17.709394
13365.839,39938,18.241435
13390.720,39939,17.992832
13390.783,39940,17.783246
13415.702,39941,17.996943
13415.782,39942,18.116881
13415.842,39943,18.316658
13449.713,39944,18.135777
13449.781,39945,18.276053
13454.349,39946,18.287593
13480.741,39947,18.381495
13480.831,39948,18.557184
13509.561,39949,17.999900
13509.685,39950,17.920927
13509.763,39951,18.007473
13530.720,39952,17.873687
13530.769,39953,18.169097
13546.825,39954,17.838059
13546.887,39955,18.094812
13546.934,39956,18.207538
13553.660,39957,18.074474
13553.715,39958,18.673227
13577.726,39959,18.108659
13577.802,39960,17.649533
13604.015,39961,17.656673
13604.097,39962,17.709899
13604.193,39963,18.014252
13628.704,39964,17.961387
13628.755,39965,18.140104
13659.090,39966,18.161813
13659.164,39967,18.185324
13659.218,39968,18.842857
13661.815,39969,19.068093
13661.890,39970,18.736045
13687.955,39971,18.290622
13688.092,39972,17.935495
13688.195,39973,17.966075
13711.690,39974,17.752450
13711.766,39975,18.205591
13741.690,39976,18.265452
13741.739,39977,18.006174
13741.773,39978,18.172559
13750.586,39979,17.980427
13750.631,39980,18.240065
13774.788,39981,18.350916
13774.867,39982,17.740983
13774.909,39983,17.507093
13800.675,39984,17.436486
13800.724,39985,19.387087
13825.752,39986,22.677348
13825.812,39987,22.245556
13825.849,39988,18.967339
13825.884,39989,18.056659
13825.919,39990,18.543625
13875.654,39991,18.444241
13875.712,39992,18.467176
13875.747,39993,18.683396
13875.781,39994,18.389068
13875.815,39995,18.401761
13901.662,39996,18.376303
13901.754,39997,18.408902
13925.717,39998,18.748666
13925.789,39999,18.603918
13925.843,40000,18.759196
13947.697,40001,18.732006
13947.782,40002,18.494221
13953.690,40003,18.751840
13953.928,40004,18.722991
13953.976,40005,19.035422
13980.875,40006,19.008304
13980.935,40007,19.037153
13980.978,40008,19.311504
13981.020,40009,19.183560
14008.080,40010,19.272702
14032.678,40011,19.289218
14032.729,40012,19.118434
14035.584,40013,19.066362
14035.630,40014,19.022296
14043.919,40015,18.941880
14043.987,40016,19.127233
14044.033,40017,18.757321
14046.632,40018,18.770519
14046.686,40019,18.741959
14070.974,40020,18.516363
14071.033,40021,18.634354
14071.074,40022,18.312475
14095.788,40023,18.433423
14095.998,40024,18.367792
14120.664,40025,18.231843
14120.714,40026,18.450371
14120.750,40027,18.373850
14146.748,40028,18.390727
14146.811,40029,18.274395
14171.817,40030,18.087095
14171.910,40031,18.326394
14171.969,40032,18.053342
14198.676,40033,18.193186
14198.744,40034,18.129574
14223.680,40035,18.090052
14223.743,40036,18.368730
14223.786,40037,18.146379
14252.877,40038,18.095605
14252.949,40039,17.924100
14253.003,40040,17.650975
14253.054,40041,17.716967
14279.675,40042,17.305152
14279.731,40043,17.296858
14279.769,40044,17.581666
14308.059,40045,17.573012
14308.117,40046,17.162135
14308.156,40047,16.914253
14332.691,40048,17.120809
14332.773,40049,17.118285
14332.828,40050,16.711447
14332.881,40051,16.728540
14358.200,40052,16.862830
14358.263,40053,18.917070
14358.305,40054,22.362249
14359.574,40055,21.699379
14359.625,40056,17.528513
14384.901,40057,17.231155
14384.960,40058,17.249763
14410.661,40059,17.358161
14410.742,40060,17.316187
14410.793,40061,17.543153
14435.745,40062,16.986951
14435.840,40063,17.425739
14445.762,40064,17.390256
14445.815,40065,17.225458
14445.852,40066,17.493606
14471.719,40067,17.177641
14471.784,40068,17.302051
14471.827,40069,17.171799
14498.760,40070,17.214207
14498.811,40071,17.524907
14524.332,40072,17.251494
14524.486,40073,17.553827
14524.549,40074,17.598543
14546.690,40075,17.577844
14546.762,40076,17.759086
14570.825,40077,17.596379
14570.987,40078,17.706942
14571.071,40079,17.591042
14571.105,40080,17.484663
14571.139,40081,17.892150
14596.822,40082,17.806037
14596.922,40083,17.640085
14623.187,40084,17.355781
14623.253,40085,17.129897
14623.299,40086,17.162063
14652.936,40087,16.942164
14653.160,40088,16.928461
14661.659,40089,16.701566
14661.718,40090,16.391010
14661.759,40091,16.623170
14685.639,40092,16.474744
14685.692,40093,16.516791
14685.726,40094,16.414450
14685.759,40095,16.273452
14712.654,40096,16.365407
14736.775,40097,16.252825
14736.825,40098,16.445895
14736.858,40099,16.420220
14736.891,40100,16.373701
14764.014,40101,16.389568
14786.320,40102,16.334395
14786.378,40103,16.579753
14786.419,40104,16.576291
14814.592,40105,16.270928
14814.651,40106,16.284775
14814.692,40107,16.009848
14814.730,40108,15.805455
14836.714,40109,15.848295
14836.776,40110,15.716673
14865.611,40111,15.807186
14865.671,40112,15.538316
14865.717,40113,15.445063
14867.599,40114,15.803508
14867.642,40115,15.492736
14871.614,40116,15.348132
14871.650,40117,15.185858
14871.683,40118,14.492336
14897.789,40119,14.742238
14897.871,40120,16.021676
14900.600,40121,19.633238
14900.636,40122,20.259110
14924.877,40123,16.508352
14950.033,40124,15.092172
14950.190,40125,15.227400
14950.331,40126,15.095129
14950.419,40127,15.202374
14968.573,40128,14.916484
14969.602,40129,15.043274
14969.645,40130,14.925138
14973.757,40131,14.997116
14973.821,40132,14.943818
14973.875,40133,14.814576
15000.803,40134,15.126790
15001.008,40135,14.907036
15001.081,40136,14.976922
15001.126,40137,14.959901
15025.701,40138,14.832174
15025.748,40139,15.066641
15025.782,40140,14.801233
15056.006,40141,14.900040
15056.411,40142,14.976489
15061.674,40143,14.944900
15061.717,40144,15.316398
15061.828,40145,15.063251
15087.408,40146,15.344309
15087.540,40147,15.365729
15087.576,40148,14.940500
15087.611,40149,14.964445
15113.019,40150,14.565828
15138.738,40151,14.667664
15138.799,40152,14.604197
15138.835,40153,14.556092
15138.872,40154,14.788324
15164.671,40155,14.623381
15164.741,40156,15.181314
15164.790,40157,15.386861
15172.619,40158,14.943601
15172.667,40159,14.413219
15172.702,40160,14.285419
15199.735,40161,14.768707
15199.769,40162,15.002092
15199.801,40163,15.081282
15199.831,40164,15.547187
15227.839,40165,16.060982
15227.966,40166,16.056294
15228.018,40167,15.200571
15250.951,40168,15.072771
15250.998,40169,15.518844
15266.741,40170,15.562621
15266.806,40171,15.879740
15266.853,40172,15.741195
15274.355,40173,15.602000
15274.417,40174,15.529373
15274.469,40175,15.170352
15274.513,40176,15.383399
15300.746,40177,15.241680
15300.791,40178,15.351449
15300.822,40179,15.778770
15327.677,40180,14.978148
15327.728,40181,15.081642
15327.762,40182,15.076594
15353.193,40183,15.019041
15353.264,40184,14.854387
15358.515,40185,14.215389
15358.835,40186,15.353108
15379.743,40187,17.886236
15379.796,40188,20.722780
15379.832,40189,19.138628
15407.770,40190,15.332986
15407.842,40191,16.026580
15407.900,40192,15.982153
15407.960,40193,15.965853
15408.020,40194,15.983235
15431.816,40195,15.811369
15431.982,40196,16.017925
15458.381,40197,15.924816
15458.456,40198,15.903540
15458.513,40199,16.050813
15484.030,40200,15.927629
15484.077,40201,16.188421
15509.736,40202,16.179838
15509.807,40203,16.204648
15509.862,40204,16.545423
15517.845,40205,16.229025
15518.013,40206,16.521406
15542.021,40207,16.757965
15542.202,40208,16.763014
15542.347,40209,16.868960
15567.957,40210,17.034119
15568.035,40211,17.139056
15597.712,40212,17.276664
15597.808,40213,17.115112
15597.887,40214,17.086912
15607.018,40215,17.175838
15607.115,40216,17.102130
15631.648,40217,17.155283
15631.711,40218,16.723419
15631.760,40219,16.942597
15657.328,40220,16.715197
15657.756,40221,16.482966
15681.643,40222,16.655841
15681.692,40223,16.692912
15681.726,40224,17.046380
15681.760,40225,16.818764
15681.793,40226,16.537273
15710.737,40227,16.870259
15710.864,40228,16.544630
15717.565,40229,16.407021
15717.618,40230,16.426855
15717.662,40231,16.454189
15742.971,40232,16.570954
15743.023,40233,16.550688
15743.057,40234,16.815807
15743.092,40235,16.902858
15769.665,40236,17.112948
15769.721,40237,17.292819
15769.760,40238,16.853238
15795.666,40239,17.102274
15795.716,40240,17.042918
15795.751,40241,16.898098
15825.619,40242,16.824822
15825.665,40243,16.512752
15825.698,40244,16.602832
15825.729,40245,16.573767
15851.800,40246,16.324586
15851.837,40247,16.529700
15851.868,40248,16.309513
15876.931,40249,16.384375
15877.112,40250,15.905704
15901.941,40251,15.559881
15902.040,40252,16.066896
15902.077,40253,17.744229
15925.854,40254,21.464406
15925.958,40255,21.081368
15926.023,40256,17.011978
15926.087,40257,16.731929
15931.661,40258,16.793810
15931.717,40259,16.868095
15931.755,40260,16.882014
15956.930,40261,16.797127
15957.180,40262,16.967190
15957.217,40263,16.851435
15984.060,40264,17.117564
15984.173,40265,17.184420
16013.537,40266,17.357945
16013.607,40267,17.367682
16013.673,40268,17.384630
16022.914,40269,17.695474
16023.004,40270,17.756129
16044.813,40271,17.693022
16044.989,40272,17.965426
16045.130,40273,17.940544
16070.737,40274,18.230473
16099.744,40275,18.332308
16099.966,40276,18.158062
16100.107,40277,18.456574
16100.242,40278,18.357767
16100.356,40279,18.442871
16100.386,40280,18.384452
16114.153,40281,18.406738
16114.218,40282,18.528479
16134.758,40283,18.331948
16134.825,40284,18.416186
16134.866,40285,18.316442
16160.801,40286,18.250667
16160.904,40287,18.143927
16160.986,40288,17.884217
16161.064,40289,18.055578
16186.636,40290,18.027017
16186.703,40291,18.078440
16186.754,40292,18.246988
16208.150,40293,18.064881
16208.226,40294,18.301008
16209.232,40295,18.137796
16211.641,40296,18.273313
16211.721,40297,18.534610
16235.663,40298,18.454554
16235.720,40299,18.682675
16235.759,40300,18.680584
16262.658,40301,18.837520
16262.708,40302,18.913392
16286.803,40303,18.823529
16286.875,40304,18.799296
16286.928,40305,18.619785
16315.896,40306,18.407603
16315.986,40307,18.490183
16321.637,40308,18.441573
16321.712,40309,18.395703
16321.769,40310,18.475253
16321.823,40311,18.257951
16321.885,40312,18.398732
16347.819,40313,18.402411
16347.901,40314,18.390006
16372.663,40315,18.346011
16372.723,40316,17.734276
16372.766,40317,17.434899
16400.715,40318,18.286727
16400.820,40319,20.798652
16420.633,40320,24.340184
16420.693,40321,22.664150
16420.734,40322,18.552856
16426.599,40323,19.002823
16426.643,40324,19.038740
16451.658,40325,19.157812
16451.723,40326,18.977004
16477.666,40327,19.011694
16477.741,40328,19.021935
16477.798,40329,18.954430
16502.775,40330,19.117641
16502.847,40331,18.836655
16523.694,40332,19.245657
16523.760,40333,19.275227
16523.802,40334,19.240680
16549.666,40335,19.515103
16549.719,40336,19.334655
16549.754,40337,19.547053
16549.787,40338,19.627108
16549.820,40339,19.649610
16576.793,40340,19.827029
16576.967,40341,19.813254
16608.240,40342,20.061569
16608.293,40343,20.092653
16608.331,40344,19.928721
16632.644,40345,19.981225
16632.695,40346,19.693099
16658.245,40347,19.938024
16658.304,40348,19.813831
16658.343,40349,19.771568
16684.784,40350,19.774164
16684.855,40351,19.355498
16694.639,40352,19.350377
16694.703,40353,19.260297
16694.754,40354,19.115838
16701.569,40355,19.181757
16701.622,40356,18.786891
16701.660,40357,19.059439
16701.695,40358,19.037441
16728.739,40359,18.981259
16728.801,40360,19.099610
16728.836,40361,18.943972
16756.554,40362,19.032537
16757.824,40363,18.994096
16778.687,40364,19.085835
16778.757,40365,19.276885
16778.806,40366,19.012415
16789.578,40367,19.346338
16789.628,40368,19.392713
16795.573,40369,19.458271
16795.614,40370,19.555852
16795.648,40371,18.983855
16821.636,40372,19.273207
16821.699,40373,18.961786
16821.745,40374,18.854108
16821.789,40375,19.045447
16848.712,40376,18.833842
16873.707,40377,19.129252
16873.834,40378,18.881082
16873.936,40379,19.175050
16874.034,40380,19.002823
16893.690,40381,18.684622
16900.719,40382,18.786242
16900.790,40383,17.953093
16924.692,40384,19.344319
16924.763,40385,22.714923
16924.815,40386,23.894833
16951.092,40387,21.011915
16951.191,40388,18.963805
16975.632,40389,20.187132
16975.693,40390,19.606553
16975.736,40391,18.987028
16975.777,40392,18.985225
16991.652,40393,18.985298
17020.214,40394,19.035494
17020.423,40395,19.322322
17042.663,40396,19.157740
17042.737,40397,19.282294
17042.791,40398,19.203393
17066.889,40399,19.417378
17067.049,40400,19.866047
17087.672,40401,19.736300
17087.722,40402,19.391270
17087.757,40403,19.424446
17116.789,40404,19.720794
17116.882,40405,19.878163
17116.933,40406,19.844410
17118.837,40407,19.896554
17141.718,40408,20.107222
17141.779,40409,20.011372
17141.824,40410,19.995433
17167.656,40411,19.949492
17167.755,40412,19.944804
17167.819,40413,20.039139
17195.811,40414,19.789742
17195.993,40415,19.938745
17196.042,40416,19.724977
17196.090,40417,19.582248
17203.139,40418,19.600062
17207.838,40419,19.184570
17208.925,40420,19.144037
17229.678,40421,19.203033
17229.732,40422,19.177213
17258.736,40423,19.435553
17258.788,40424,19.450338
17258.825,40425,19.517195
17279.694,40426,19.402305
17279.758,40427,19.311936
17300.660,40428,19.364297
17300.709,40429,19.227915
17300.743,40430,19.354560
17330.779,40431,19.245585
17330.916,40432,19.261235
17331.006,40433,19.762336
17331.095,40434,19.683363
17357.602,40435,19.985985
17381.657,40436,19.702475
17381.722,40437,19.511641
17381.769,40438,19.532484
17381.898,40439,19.047394
17392.653,40440,19.109563
17418.561,40441,19.103361
17418.623,40442,19.052226
17418.665,40443,19.095716
17418.712,40444,18.850863
17443.259,40445,18.982341
17469.466,40446,18.889809
17469.635,40447,18.471719
17469.680,40448,18.026008
17469.722,40449,17.748340
17484.677,40450,19.390693
17484.736,40451,22.389655
17484.777,40452,23.669309
17509.628,40453,20.655058
17509.687,40454,18.085148
17535.703,40455,18.757393
17535.757,40456,18.550188
17535.793,40457,18.740300
17560.637,40458,18.833914
17560.696,40459,18.415825
17580.641,40460,18.524657
17580.689,40461,18.378033
17580.724,40462,18.388347
17587.134,40463,18.526316
17587.188,40464,18.234367
17612.644,40465,18.411137
17612.709,40466,18.396424
17636.712,40467,18.396352
17636.760,40468,18.766120
17636.795,40469,18.692484
17665.305,40470,18.611131
17665.429,40471,18.501722
17673.648,40472,18.604135
17676.555,40473,18.945775
17676.603,40474,18.842425
17700.764,40475,19.162717
17700.837,40476,19.017392
17725.709,40477,18.956377
17725.797,40478,19.049269
17725.863,40479,18.976715
17751.635,40480,19.296575
17751.686,40481,18.978807
17778.731,40482,19.053092
17778.818,40483,19.028066
17778.883,40484,18.479869
17807.661,40485,18.589566
17807.716,40486,18.124093
17830.894,40487,18.399670
17831.044,40488,18.578964
17831.141,40489,18.406017
17857.627,40490,18.627791
17857.686,40491,18.555885
17884.681,40492,18.487875
17884.752,40493,18.853243
17884.806,40494,18.820788
17894.923,40495,18.860671
17895.046,40496,18.289035
17921.548,40497,18.358561
17921.644,40498,18.738497
17921.754,40499,18.653610
17946.891,40500,19.002174
17947.005,40501,18.785593
17947.089,40502,18.811268
17971.667,40503,18.699624
17971.749,40504,18.650942
17971.802,40505,19.074296
17971.853,40506,18.764461
18003.681,40507,18.113636
18003.740,40508,18.313917
18003.782,40509,18.297978
18004.308,40510,18.191527
18004.401,40511,18.317019
18029.779,40512,18.131017
18029.891,40513,17.860417
18029.964,40514,17.171222
18030.041,40515,17.637056
18057.334,40516,19.791185
18088.094,40517,23.214798
18088.237,40518,22.631983
18088.327,40519,18.435370
18088.412,40520,18.100798
18093.704,40521,18.492923
18093.771,40522,18.196864
18093.809,40523,18.258023
18119.666,40524,18.189147
18119.716,40525,18.132748
18119.751,40526,18.208548
18145.679,40527,17.926985
18145.753,40528,18.116520
18145.808,40529,18.151499
18145.861,40530,18.246844
18172.639,40531,18.443231
18172.690,40532,18.154673
18172.725,40533,18.328270
18190.408,40534,18.233213
18190.517,40535,18.292281
18190.590,40536,18.391809
18190.643,40537,18.336347
18190.685,40538,18.812711
18215.632,40539,18.579686
18215.687,40540,18.514848
18215.725,40541,18.662048
18215.763,40542,18.551342
18242.722,40543,18.827135
18242.773,40544,18.583436
18242.808,40545,18.550332
18275.713,40546,18.441717
18275.825,40547,18.225063
18278.654,40548,18.317956
18280.557,40549,18.023411
18280.594,40550,17.722304
18308.574,40551,17.778558
18309.688,40552,17.570199
18309.745,40553,17.597750
18331.671,40554,17.390833
18331.733,40555,17.459276
18358.958,40556,17.673045
18359.107,40557,17.480047
18359.252,40558,17.458771
18359.299,40559,17.360614
18378.671,40560,17.501251
18378.765,40561,17.756273
18378.825,40562,17.590393
18380.549,40563,17.784545
18411.514,40564,17.618521
18411.632,40565,17.628978
18411.719,40566,17.700739
18411.803,40567,17.332126
18431.686,40568,17.431293
18431.754,40569,17.144898
18431.801,40570,17.043495
18467.906,40571,16.877182
18467.970,40572,16.610909
18471.600,40573,16.749888
18471.657,40574,16.661322
18497.745,40575,16.451737
18497.861,40576,16.754287
18497.956,40577,16.579609
18523.640,40578,16.544630
18523.690,40579,15.819735
18558.666,40580,16.150124
18558.874,40581,18.032354
18558.932,40582,21.136974
18562.658,40583,21.162866
18562.779,40584,17.001159
18586.967,40585,16.488735
18612.659,40586,17.183122
18612.727,40587,17.028710
18612.784,40588,17.380880
18612.833,40589,17.406699
18637.933,40590,17.302123
18654.153,40591,17.433817
18654.206,40592,16.803546
18654.246,40593,16.761932
18654.285,40594,16.714043
18665.537,40595,16.814437
18665.596,40596,17.013420
18665.638,40597,16.778159
18685.717,40598,17.061381
18685.779,40599,17.182473
18710.910,40600,17.490721
18711.097,40601,17.504496
18711.290,40602,17.283083
18737.677,40603,18.072670
18737.730,40604,17.724539
18746.683,40605,17.368691
18746.750,40606,17.576906
18746.795,40607,17.557434
18772.694,40608,17.819740
18772.745,40609,17.837410
18797.760,40610,17.648379
18797.811,40611,17.764927
18797.847,40612,17.625516
18829.745,40613,17.694537
18829.795,40614,17.994346
18836.652,40615,17.253513
18836.785,40616,17.114895
18862.612,40617,17.065997
18862.668,40618,17.222356
18862.703,40619,17.347560
18888.891,40620,17.102130
18889.049,40621,17.410089
18912.632,40622,17.268226
18912.681,40623,17.182834
18912.716,40624,17.317557
18933.805,40625,17.166174
18933.863,40626,17.451343
18965.847,40627,17.437423
18965.917,40628,17.493390
18965.963,40629,17.662947
18985.691,40630,17.593206
18985.780,40631,17.989875
19010.672,40632,17.849743
19010.754,40633,17.712062
19010.817,40634,17.735358
19036.681,40635,17.367898
19036.745,40636,17.321884
19056.560,40637,17.205408
19058.872,40638,17.138479
19058.930,40639,17.323615
19079.812,40640,17.126651
19079.895,40641,17.298805
19079.952,40642,17.182473
19080.002,40643,17.318062
19108.566,40644,16.950819
19130.676,40645,16.418056
19130.725,40646,17.127733
19130.760,40647,18.967628
19130.794,40648,22.325394
19161.887,40649,21.599779
19167.627,40650,17.255677
19167.695,40651,17.492813
19167.751,40652,17.548346
19167.801,40653,17.513656
19193.693,40654,17.602077
19193.757,40655,17.494255
19193.801,40656,17.725982
19217.654,40657,17.595009
19217.710,40658,17.546976
19246.655,40659,17.595370
19246.710,40660,17.457906
19246.749,40661,17.539187
19252.925,40662,17.389679
19253.219,40663,17.421196
19258.826,40664,17.642465
19258.953,40665,17.478749
19283.271,40666,17.894746
19311.248,40667,17.903257
19311.344,40668,18.031922
19311.394,40669,18.271366
19311.442,40670,18.167222
19333.727,40671,18.493428
19369.414,40672,18.406449
19369.491,40673,18.414455
19390.645,40674,18.246123
19390.703,40675,18.037475
19390.741,40676,18.208620
19415.690,40677,18.053702
19415.764,40678,17.912705
19449.778,40679,17.971340
19449.826,40680,17.764783
19449.858,40681,17.925903
19449.890,40682,17.752595
19449.921,40683,17.644917
19456.557,40684,17.728290
19456.609,40685,17.400136
19456.650,40686,17.775241
19456.690,40687,17.715885
19481.739,40688,17.704273
19481.783,40689,17.852916
19481.815,40690,17.723962
19508.111,40691,18.091638
19508.157,40692,18.111905
19533.708,40693,18.398444
19533.758,40694,18.596418
19533.793,40695,18.429673
19551.759,40696,18.758187
19551.796,40697,18.743979
19557.959,40698,18.696450
19558.005,40699,18.599375
19558.045,40700,18.319182
19582.817,40701,18.473306
19582.867,40702,18.287521
19582.901,40703,18.243022
19610.703,40704,18.318461
19610.752,40705,18.121208
19610.787,40706,18.538720
19610.821,40707,18.508718
19635.811,40708,17.942058
19635.860,40709,18.120559
19635.893,40710,17.469373
19650.837,40711,17.397756
19650.884,40712,18.984216
19650.916,40713,21.181978
19650.947,40714,23.568988
19650.978,40715,21.373100
19659.243,40716,18.230977
19659.366,40717,18.735036
19659.553,40718,18.261773
19659.588,40719,18.542903
19682.841,40720,18.572762
19682.891,40721,18.693638
19682.925,40722,18.840910
19709.619,40723,18.763596
19709.668,40724,19.001597
19709.703,40725,19.045663
19735.836,40726,19.150672
19735.883,40727,19.228203
19735.914,40728,19.141152
19735.945,40729,19.315182
19763.726,40730,19.245512
19763.778,40731,19.258278
19763.831,40732,19.492240
19763.867,40733,19.365234
19763.902,40734,19.678026
19789.876,40735,19.662303
19789.923,40736,19.755484
19789.956,40737,19.966729
19815.767,40738,19.938962
19815.833,40739,20.059333
19841.758,40740,19.807051
19841.819,40741,19.845564
19841.858,40742,19.859989
19864.610,40743,19.791113
19864.664,40744,19.950429
19868.592,40745,19.824361
19868.651,40746,19.746541
19868.704,40747,19.735795
19894.836,40748,19.501184
19894.893,40749,19.654081
19894.934,40750,19.485677
19894.974,40751,19.451131
19920.741,40752,19.709254
19920.841,40753,19.520729
19920.915,40754,19.714880
19946.891,40755,19.600351
19946.960,40756,19.873403
19947.005,40757,20.308802
19957.147,40758,19.949852
19957.274,40759,20.393544
19957.551,40760,20.226222
19957.589,40761,20.324813
19983.747,40762,20.494371
19985.624,40763,20.182589
19985.669,40764,20.259326
20010.633,40765,20.086162
20010.684,40766,19.906723
20035.718,40767,19.905137
20035.753,40768,19.519935
20035.784,40769,19.726419
20066.032,40770,19.610015
20066.101,40771,19.773154
20090.888,40772,19.980143
20090.935,40773,19.535441
20090.967,40774,19.643480
20116.725,40775,19.126367
20116.792,40776,18.787179
20141.869,40777,20.319259
20141.915,40778,23.176862
20141.948,40779,25.303152
20178.802,40780,22.490697
20178.968,40781,19.224813
20202.911,40782,20.012959
20202.963,40783,19.737959
20203.002,40784,19.952016
20229.693,40785,19.766808
20229.747,40786,19.899295
20259.614,40787,20.268486
20259.669,40788,20.057313
20259.710,40789,19.974662
20265.606,40790,19.863451
20265.657,40791,20.065607
20265.719,40792,20.171626
20265.770,40793,20.031855
20291.732,40794,20.474321
20291.778,40795,20.843583
20291.810,40796,20.828871
20317.796,40797,21.236430
20317.905,40798,20.432923
20346.704,40799,20.238483
20346.748,40800,20.550481
20346.781,40801,20.983355
20357.794,40802,21.322255
20357.842,40803,21.166328
20380.707,40804,21.287204
20380.755,40805,21.499530
20380.790,40806,21.302421
20408.588,40807,21.341367
20408.644,40808,21.223664
20431.689,40809,21.479840
20431.738,40810,21.085912
20431.771,40811,20.719102
20451.641,40812,20.825769
20451.687,40813,20.630536
20458.577,40814,20.734175
20458.638,40815,20.812499
20482.818,40816,20.746436
20510.353,40817,20.933014
20515.307,40818,20.957752
20515.400,40819,21.162866
20515.476,40820,21.045668
20533.744,40821,20.575868
20535.719,40822,20.790069
20535.760,40823,20.727179
20549.832,40824,20.834785
20549.881,40825,21.341223
20549.913,40826,21.243209
20549.945,40827,21.668294
20549.977,40828,21.724116
20557.152,40829,21.808354
20557.517,40830,21.909397
20582.740,40831,21.347569
20582.790,40832,21.360840
20607.438,40833,21.175776
20607.510,40834,21.028431
20607.557,40835,20.852166
20632.801,40836,20.759634
20632.859,40837,21.002467
20645.818,40838,20.796127
20670.614,40839,21.004270
20670.660,40840,21.032182
20695.858,40841,20.667607
20695.941,40842,20.472734
20696.004,40843,20.266106
20731.551,40844,21.860282
20731.600,40845,25.452732
20731.635,40846,25.718429
20731.668,40847,22.376024
20758.012,40848,20.636017
20758.066,40849,21.171016
20758.106,40850,21.185873
20782.802,40851,21.048769
20782.852,40852,21.195537
20815.376,40853,21.227631
20815.480,40854,21.160197
20815.542,40855,21.093485
20815.599,40856,20.890895
20815.656,40857,21.250782
20822.764,40858,21.095288
20822.827,40859,21.135748
20847.805,40860,21.214866
20873.008,40861,21.007300
20873.059,40862,21.425100
20876.428,40863,21.275087
20876.480,40864,21.453011
20901.552,40865,21.576988
20901.629,40866,21.416590
20901.676,40867,21.766812
20928.460,40868,21.701326
20928.632,40869,21.689931
20928.785,40870,21.782896
20958.615,40871,21.559535
20958.669,40872,21.600861
20958.708,40873,21.413849
20958.746,40874,21.310499
20983.675,40875,21.313167
21008.514,40876,20.940154
21008.659,40877,21.149019
21009.528,40878,20.788050
21009.567,40879,20.779251
21038.658,40880,20.710591
21041.615,40881,20.503891
21041.682,40882,20.565050
21045.753,40883,20.347531
21045.804,40884,20.387270
21072.644,40885,20.540024
21072.711,40886,20.359936
21072.759,40887,20.434149
21095.674,40888,20.295098
21095.743,40889,20.433356
21125.669,40890,20.566997
21125.741,40891,20.514853
21125.800,40892,20.710375
21132.715,40893,20.649071
21132.781,40894,20.775140
21132.827,40895,20.866662
21132.871,40896,20.488457
21159.534,40897,20.619502
21165.216,40898,20.314211
21165.304,40899,20.398809
21185.674,40900,20.403714
21185.726,40901,19.968532
21185.762,40902,20.145446
21213.544,40903,20.178911
21213.928,40904,19.977980
21213.974,40905,20.135638
21214.016,40906,20.046062
21228.963,40907,20.112126
21231.438,40908,19.873980
21231.555,40909,19.667640
21257.131,40910,20.617482
21257.286,40911,22.618569
21257.337,40912,25.392150
21257.383,40913,23.734723
21260.816,40914,19.573233
21283.119,40915,20.461916
21283.190,40916,20.278006
21314.748,40917,20.299786
21314.817,40918,20.372413
21314.853,40919,20.266610
21340.758,40920,20.263870
21340.854,40921,20.613876
21365.691,40922,20.422393
21365.760,40923,20.227160
21365.813,40924,20.489971
21391.873,40925,20.354455
21391.986,40926,20.237978
21416.648,40927,20.428451
21416.710,40928,20.583657
21416.776,40929,20.353950
21430.910,40930,20.595485
21431.015,40931,20.580412
21456.723,40932,20.928543
21458.362,40933,21.119232
21481.934,40934,21.077979
21482.097,40935,21.491380
21482.192,40936,21.233689
21512.197,40937,21.258066
21512.280,40938,21.335237
21532.690,40939,21.077834
21532.835,40940,21.237368
21532.889,40941,20.920465
21539.699,40942,20.887001
21539.740,40943,20.771606
21539.776,40944,20.381067
21539.810,40945,20.472229
21565.778,40946,20.313994
21565.898,40947,19.995217
21565.991,40948,20.189296
21591.742,40949,19.899151
21591.813,40950,20.210211
21616.784,40951,20.182517
21616.941,40952,20.309306
21617.071,40953,20.398305
21639.666,40954,20.217928
21639.725,40955,20.288391
21663.646,40956,20.279160
21665.572,40957,20.414965
21690.700,40958,20.601471
21690.758,40959,20.591735
21690.793,40960,20.851012
21715.674,40961,20.703884
21741.761,40962,20.586758
21741.811,40963,20.630320
21741.860,40964,20.387919
21741.897,40965,20.556684
21750.747,40966,20.129147
21775.644,40967,19.947256
21775.693,40968,20.075632
21775.743,40969,19.874197
21775.780,40970,19.988365
21801.732,40971,19.868715
21801.843,40972,19.888693
21801.930,40973,19.583186
21826.712,40974,18.902430
21826.788,40975,19.260946
21849.714,40976,20.571685
21849.788,40977,24.003881
21849.829,40978,24.515512
21857.400,40979,20.697032
21857.470,40980,19.614270
21881.616,40981,19.822413
21881.669,40982,19.746397
21908.476,40983,19.855517
21908.557,40984,19.533927
21909.906,40985,19.663169
21933.673,40986,19.530681
21933.745,40987,19.604029
21947.776,40988,19.624079
21947.857,40989,19.394444
21947.916,40990,19.721876
21956.103,40991,19.329823
21956.171,40992,19.344319
21980.682,40993,19.335664
22009.038,40994,19.183993
22009.094,40995,19.588523
22009.134,40996,19.449400
22009.173,40997,19.649826
22031.700,40998,19.748056
22031.756,40999,19.629776
22031.791,41000,19.787002
22059.121,41001,19.561477
22059.177,41002,19.400646
22065.564,41003,19.701682
22065.603,41004,19.412835
22065.637,41005,19.444424
22090.788,41006,19.461228
22090.856,41007,19.211255
22116.633,41008,19.281934
22116.687,41009,19.059078
22116.729,41010,19.061530
22149.822,41011,19.054823
22150.034,41012,18.827640
22159.113,41013,19.127305
22159.177,41014,18.899401
22182.621,41015,18.840045
22182.694,41016,18.831029
22182.739,41017,18.660101
22208.510,41018,18.781410
22208.577,41019,18.787179
22236.682,41020,18.869975
22236.745,41021,18.884760
22236.782,41022,18.956305
22241.611,41023,19.095355
22241.664,41024,18.658803
22267.811,41025,18.837665
22267.914,41026,19.096581
22267.995,41027,18.960271
22292.707,41028,19.163510
22292.779,41029,18.800161
22292.835,41030,18.743185
22292.886,41031,18.578604
22292.938,41032,18.508285
22317.787,41033,18.892333
22317.837,41034,18.166789
22317.875,41035,17.798248
22317.909,41036,18.084498
22348.657,41037,17.906646
22350.620,41038,18.081830
22350.675,41039,17.815990
22376.247,41040,17.461656
22376.306,41041,17.155355
22376.349,41042,17.563564
22403.156,41043,19.513012
22403.218,41044,22.960209
22426.718,41045,22.049962
22426.784,41046,18.210279
22426.898,41047,17.848949
22460.295,41048,18.099139
22460.533,41049,17.854575
22485.729,41050,18.014036
22485.786,41051,17.976965
22485.826,41052,17.830847
22510.684,41053,18.014396
22519.620,41054,17.858109
22519.691,41055,17.773582
22519.734,41056,17.924821
22536.698,41057,17.739613
22536.751,41058,18.034951
22536.786,41059,17.838131
22569.793,41060,17.796084
22569.866,41061,17.805893
22572.589,41062,17.802575
22572.661,41063,18.007833
22572.728,41064,18.074978
22597.790,41065,18.276198
22597.844,41066,18.317163
22599.882,41067,18.170179
22599.983,41068,18.447054
22623.906,41069,18.281318
22650.676,41070,18.364835
22650.738,41071,18.306705
22666.661,41072,18.129142
22666.733,41073,18.214245
22666.781,41074,17.675569
22671.713,41075,17.550726
22671.854,41076,17.691652
22672.099,41077,17.454804
22672.339,41078,17.689344
22698.742,41079,17.613544
22698.827,41080,17.420763
22698.876,41081,17.392924
22724.745,41082,17.226828
22724.796,41083,17.353401
22724.834,41084,17.137974
22724.869,41085,17.149658
22724.904,41086,17.213630
22751.761,41087,16.951396
22751.854,41088,17.165669
22752.518,41089,17.108332
22752.565,41090,17.219327
22772.713,41091,17.364652
22772.762,41092,17.347848
22772.797,41093,17.561256
22799.711,41094,17.415282
22799.804,41095,17.315249
22799.880,41096,17.312797
22825.711,41097,17.027484
22825.781,41098,17.012122
22850.698,41099,16.664207
22850.749,41100,16.537850
22850.784,41101,16.453179
22882.689,41102,16.219145
22882.757,41103,16.245469
22889.899,41104,16.175295
22890.037,41105,16.035018
22914.686,41106,16.107068
22939.662,41107,15.544663
22939.711,41108,15.309691
22939.746,41109,16.232271
22939.780,41110,18.526171
22970.625,41111,21.608722
22970.674,41112,19.550947
22970.709,41113,15.920345
22976.811,41114,16.332880
22976.856,41115,16.160365
22976.891,41116,16.485850
22976.926,41117,16.366417
23003.160,41118,16.361441
23003.213,41119,16.588407
23003.253,41120,16.324009
23027.665,41121,16.606510
23027.743,41122,16.705028
23052.745,41123,16.706326
23052.852,41124,16.827851
23052.895,41125,16.825327
23080.764,41126,17.038807
23080.853,41127,16.864273
23085.690,41128,16.970652
23111.681,41129,17.085614
23111.799,41130,16.908627
23111.893,41131,17.206490
23111.940,41132,16.997337
23136.626,41133,17.221635
23136.676,41134,17.532696
23136.712,41135,17.343160
23170.796,41136,17.331332
23170.889,41137,17.231732
23170.954,41138,17.271111
23177.669,41139,17.270317
23177.731,41140,17.213053
23179.529,41141,17.181896
23179.572,41142,16.845737
23194.639,41143,17.028421
23194.707,41144,16.866076
23194.759,41145,16.694354
23202.579,41146,16.657211
23202.644,41147,16.634926
23202.692,41148,16.652379
23202.738,41149,16.741377
23221.739,41150,16.656634
23225.578,41151,16.822298
23225.619,41152,16.541312
23240.776,41153,16.602255
23240.833,41154,16.733588
23245.739,41155,16.752845
23245.845,41156,16.996760
23245.927,41157,16.801094
23266.737,41158,16.904805
23266.884,41159,17.299382
23267.055,41160,16.865210
23289.646,41161,17.315033
23289.694,41162,17.023661
23289.729,41163,16.961781
23289.762,41164,16.766764
23308.668,41165,16.468902
23310.593,41166,16.625334
23310.647,41167,16.409546
23329.638,41168,16.310234
23329.692,41169,16.562948
23329.728,41170,16.377668
23329.763,41171,16.530710
23329.798,41172,16.306412
23334.739,41173,16.029537
23334.820,41174,15.541490
23337.762,41175,15.726410
23337.851,41176,17.876572
23337.912,41177,21.196114
23344.683,41178,20.852887
23344.742,41179,16.674737
23344.783,41180,16.390289
23344.823,41181,16.943102
23353.004,41182,16.647403
23353.049,41183,16.635791
23353.096,41184,16.710077
23358.056,41185,16.325236
23358.143,41186,16.591220
23359.116,41187,16.486860
23366.602,41188,16.435509
23366.699,41189,16.582493
23366.786,41190,16.321197
23366.883,41191,16.802392
23371.606,41192,16.847829
23371.663,41193,16.946347
23371.712,41194,16.991351
23375.721,41195,16.865715
23375.782,41196,17.185358
23387.968,41197,17.014863
23388.092,41198,17.169708
23388.186,41199,17.343954
23402.648,41200,17.280270
23402.706,41201,17.384053
23427.718,41202,17.439443
23427.806,41203,17.206634
23427.852,41204,17.672395
23442.763,41205,17.619386
23442.832,41206,17.433096
23468.002,41207,17.307532
23469.968,41208,16.886558
23470.035,41209,17.060443
23491.655,41210,16.779674
23491.708,41211,16.696373
23498.551,41212,16.669761
23498.603,41213,16.433923
23511.831,41214,16.519892
23525.671,41215,16.500275
23525.738,41216,16.625911
23551.064,41217,16.690820
23551.154,41218,16.441135
23551.214,41219,16.276121
23565.656,41220,16.105914
23565.722,41221,16.296026
23579.713,41222,16.496092
23579.786,41223,16.514411
23603.674,41224,16.729982
23603.882,41225,16.772101
23603.940,41226,16.963512
23617.632,41227,17.357368
23617.702,41228,17.164803
23643.144,41229,17.474422
23643.206,41230,17.131988
23643.250,41231,17.110640
23658.857,41232,17.034768
23658.916,41233,16.690676
23681.949,41234,16.794459
23682.014,41235,16.622881
23682.060,41236,16.604851
23708.187,41237,16.707480
23708.246,41238,16.674953
23712.741,41239,17.175333
23712.818,41240,16.541673
23726.649,41241,16.277347
23756.731,41242,15.812811
23759.168,41243,16.089614
23759.223,41244,18.045697
23759.257,41245,21.495347
23764.573,41246,21.081945
23777.646,41247,17.042413
23777.695,41248,16.666948
23804.062,41249,17.101841
23804.292,41250,17.134152
23804.368,41251,17.711485
23826.787,41252,17.345540
23826.884,41253,16.612640
23835.703,41254,17.215577
23835.754,41255,17.184565
23858.199,41256,17.243416
23858.264,41257,17.369701
23858.315,41258,17.335587
23872.716,41259,17.428119
23872.770,41260,17.288492
23898.207,41261,17.233391
23898.296,41262,17.559741
23898.361,41263,17.594360
23921.834,41264,17.636335
23921.957,41265,17.576257
23927.759,41266,17.585633
23927.826,41267,17.585849
23941.758,41268,17.344819
23956.851,41269,17.757860
23956.921,41270,17.852483
23969.968,41271,17.959656
23970.026,41272,17.836977
23978.620,41273,17.610948
24003.062,41274,17.575969
24003.196,41275,17.617871
24007.958,41276,17.445068
24008.004,41277,17.567026
24022.801,41278,17.415282
24036.623,41279,17.407853
24036.674,41280,17.201008
24049.687,41281,17.123406
24049.736,41282,17.278756
24073.622,41283,17.136892
24073.673,41284,17.279477
24073.708,41285,17.153625
24088.799,41286,17.193508
24088.857,41287,16.995822
24114.934,41288,16.957959
24116.285,41289,17.280847
24116.331,41290,17.123189
24127.640,41291,17.238367
24127.711,41292,17.423143
24151.708,41293,17.259788
24151.970,41294,17.419609
24152.021,41295,17.337535
24176.645,41296,17.590754
24176.697,41297,17.641527
24183.150,41298,17.316259
24196.572,41299,17.287266
24196.637,41300,17.072127
24214.319,41301,16.665361
24214.390,41302,16.740079
24224.671,41303,16.484696
24224.729,41304,16.559342
24232.590,41305,16.566915
24258.811,41306,16.399593
24258.872,41307,16.652956
24263.781,41308,16.431687
24263.850,41309,16.198951
24290.719,41310,15.760523
24290.758,41311,15.822908
24290.790,41312,17.867629
24308.648,41313,21.130844
24308.705,41314,20.874091
24320.930,41315,16.704090
24320.996,41316,16.030547
24328.831,41317,16.463565
24351.940,41318,16.176160
24351.987,41319,16.234290
24357.975,41320,16.214817
24358.025,41321,16.088532
24372.690,41322,16.213591
24386.039,41323,16.089037
24386.210,41324,16.230396
24399.809,41325,16.332592
24399.847,41326,16.100865
24407.798,41327,16.372908
24431.741,41328,16.336198
24431.792,41329,16.482389
24437.800,41330,16.639037
24437.971,41331,16.620357
24452.169,41332,16.941515
24466.732,41333,16.932788
24466.813,41334,17.117636
24479.636,41335,17.258634
24479.689,41336,17.121386
24487.961,41337,17.566088
24515.291,41338,17.329818
24515.375,41339,17.196609
24520.577,41340,17.226179
24520.622,41341,17.064122
24545.752,41342,17.259571
24545.800,41343,17.073714
24545.833,41344,16.989331
24560.002,41345,16.984860
24560.073,41346,16.915407
24572.591,41347,17.000582
24572.636,41348,16.826697
24586.836,41349,16.865931
24600.696,41350,16.822803
24600.836,41351,16.839174
24615.580,41352,16.816167
24615.628,41353,16.501789
24623.565,41354,16.472724
24646.816,41355,16.672573
24657.093,41356,16.718154
24658.294,41357,16.930408
24658.337,41358,17.003828
24664.554,41359,17.154923
24677.570,41360,17.166462
24677.612,41361,18.031201
24701.808,41362,17.811374
24701.855,41363,17.389967
24701.887,41364,17.496419
24719.726,41365,17.323255
24719.782,41366,17.041475
24732.676,41367,17.031306
24732.725,41368,16.896872
24746.773,41369,16.944111
24761.658,41370,16.963656
24761.735,41371,16.727314
24774.655,41372,16.955723
24774.711,41373,16.717361
24787.660,41374,16.724934
24787.691,41375,16.742387
24801.959,41376,16.213880
24817.017,41377,15.905055
24817.324,41378,16.354589
24831.759,41379,18.673948
24831.810,41380,22.085374
24838.840,41381,20.661981
24852.753,41382,16.753999
24853.103,41383,17.132493
24876.993,41384,17.071839
24877.094,41385,17.018396
24877.170,41386,16.773039
24901.645,41387,17.075733
24901.696,41388,16.923268
24911.682,41389,17.225963
24911.749,41390,17.331621
24921.625,41391,17.167760
24935.651,41392,17.425523
24935.699,41393,17.315826
24949.792,41394,17.408358
24949.839,41395,17.545245
24972.607,41396,17.372802
24972.659,41397,17.313230
24972.707,41398,17.482211
24987.805,41399,17.679031
24987.845,41400,17.924677
25013.073,41401,17.709466
25013.146,41402,17.763485
25013.339,41403,17.829765
25028.054,41404,17.891068
25028.379,41405,18.048942
25052.675,41406,17.841304
25055.644,41407,17.839934
25055.706,41408,17.794858
25076.681,41409,17.787862
25076.743,41410,17.818947
25082.887,41411,17.687397
25083.010,41412,17.610082
25112.896,41413,17.457329
25113.726,41414,17.304575
25113.773,41415,17.573084
25124.702,41416,17.369989
25124.763,41417,17.347992
25133.694,41418,17.230578
25151.710,41419,17.103212
25151.767,41420,17.529667
25165.497,41421,17.488413
25165.705,41422,17.288131
25172.579,41423,17.295704
25196.731,41424,17.264764
25196.794,41425,17.181968
25202.983,41426,17.262384
25203.058,41427,17.533922
25228.656,41428,17.605683
25228.728,41429,17.390616
25228.782,41430,17.761610
25243.672,41431,17.663020
25243.731,41432,17.774303
25259.057,41433,17.714947
25259.128,41434,17.451847
25271.599,41435,17.338040
25285.996,41436,17.074651
25286.085,41437,17.226756
25299.711,41438,17.429273
25299.755,41439,17.023950
25308.217,41440,17.253152
25331.615,41441,17.180887
25331.657,41442,17.376841
25340.754,41443,17.419104
25340.792,41444,17.075228
25348.768,41445,16.749094
25362.714,41446,16.894924
25362.760,41447,18.818192
25386.713,41448,22.578109
25386.759,41449,21.900382
25386.791,41450,17.928788
25411.682,41451,17.656384
25411.734,41452,18.036105
25417.622,41453,18.052621
25417.689,41454,18.147677
25431.771,41455,18.701066
25445.766,41456,17.650759
25445.804,41457,17.530893
25459.612,41458,17.820966
25459.669,41459,17.528296
25472.759,41460,17.992615
25472.838,41461,18.066756
25486.860,41462,18.193763
25501.018,41463,18.269923
25501.065,41464,18.305046
25515.762,41465,18.789704
25515.819,41466,18.701571
25527.718,41467,18.628872
25541.912,41468,18.791579
25541.959,41469,18.630603
25564.765,41470,18.880288
25564.835,41471,18.903872
25564.870,41472,19.159688
25579.818,41473,19.139710
25579.874,41474,19.089802
25592.747,41475,19.494332
25592.786,41476,19.621410
25607.964,41477,19.337395
25620.836,41478,18.823961
25620.904,41479,18.176165
25634.830,41480,18.534249
25634.876,41481,18.413589
25658.373,41482,18.294589
25658.430,41483,18.385750
25658.480,41484,18.401112
25673.686,41485,18.570093
25673.772,41486,18.348680
25697.684,41487,18.516579
25697.747,41488,18.652024
25697.788,41489,18.481600
25716.404,41490,18.606154
25716.484,41491,18.411282
25738.403,41492,18.532013
25738.521,41493,18.740517
25738.597,41494,18.621228
25765.779,41495,18.927095
25765.839,41496,18.849348
25771.609,41497,18.918874
25771.762,41498,19.243421
25778.631,41499,18.870480
25793.655,41500,19.154279
25793.716,41501,19.273351
25816.657,41502,18.946929
25816.712,41503,18.872139
25816.751,41504,18.535619
25841.769,41505,18.574349
25841.881,41506,18.526243
25847.841,41507,18.412291
25847.914,41508,18.301152
25866.188,41509,18.359138
25875.649,41510,18.424624
25875.698,41511,18.501145
25890.041,41512,17.879096
25890.191,41513,17.544524
25913.154,41514,18.565045
25913.224,41515,21.461089
25913.266,41516,23.759749
25929.368,41517,21.202677
25929.493,41518,17.893015
25951.884,41519,18.339593
25951.946,41520,18.266101
25951.991,41521,18.438327
25977.610,41522,18.365124
25977.660,41523,18.432053
25985.560,41524,18.233790
25985.601,41525,18.289829
25993.650,41526,18.332669
26024.614,41527,18.202850
26024.687,41528,18.466310
26024.722,41529,18.517084
26024.755,41530,18.507924
26033.576,41531,18.502011
26047.651,41532,18.283626
26047.701,41533,18.512108
26072.651,41534,18.533888
26072.712,41535,18.643657
26072.754,41536,18.816605
26097.701,41537,18.826197
26097.751,41538,18.938491
26112.421,41539,18.749893
26112.508,41540,18.926807
26112.566,41541,18.844300
26136.653,41542,18.632046
26136.702,41543,18.691618
26145.607,41544,18.571031
26145.677,41545,18.490904
26162.899,41546,18.589855
26162.991,41547,18.455348
26168.630,41548,18.570526
26192.213,41549,18.369884
26192.364,41550,18.448208
26198.695,41551,18.510809
26198.767,41552,18.434216
26211.637,41553,18.685776
26225.764,41554,18.408757
26225.821,41555,18.542254
26239.635,41556,18.663924
26239.689,41557,18.321634
26247.555,41558,18.558914
26271.693,41559,18.538504
26271.774,41560,18.556895
26280.619,41561,18.709793
26280.667,41562,18.769293
26289.607,41563,19.091388
26302.981,41564,19.375692
26303.161,41565,19.408507
26326.681,41566,19.149446
26326.765,41567,18.935462
26326.830,41568,19.010107
26352.694,41569,18.684550
26352.756,41570,18.627286
26364.588,41571,18.617189
26364.669,41572,18.461406
26384.706,41573,18.623319
26384.780,41574,18.517445
26384.832,41575,18.863628
26400.905,41576,19.248542
26400.964,41577,18.533960
26413.003,41578,18.171189
26413.064,41579,17.813610
26422.631,41580,17.690354
26447.670,41581,18.858940
26447.721,41582,21.628339
26453.086,41583,23.952530
26466.622,41584,21.335814
26466.698,41585,18.345723
26481.674,41586,19.164736
26481.746,41587,18.862763
26494.761,41588,18.850863
26494.828,41589,18.464868
26504.138,41590,18.444457
26527.718,41591,18.657361
26527.795,41592,18.624185
26532.692,41593,18.826414
26532.745,41594,18.672218
26547.637,41595,18.784367
26560.635,41596,18.838746
26560.701,41597,18.676329
26574.830,41598,18.767490
26574.892,41599,19.075882
26597.822,41600,19.000371
26597.895,41601,19.281213
26597.941,41602,19.091244
26613.646,41603,19.268159
26613.713,41604,19.536018
26637.813,41605,19.441539
26637.863,41606,19.733776
26637.896,41607,19.497217
26653.716,41608,19.482288
26653.778,41609,19.530176
26679.176,41610,19.302488
26679.242,41611,19.666054
26679.284,41612,19.430865
26701.698,41613,19.276525
26701.763,41614,19.279410
26708.625,41615,19.009675
26708.681,41616,19.248253
26721.689,41617,18.940222
26738.734,41618,18.858940
26738.852,41619,19.008376
26750.779,41620,18.555236
26750.828,41621,18.755662
26759.208,41622,18.855983
26781.651,41623,18.966402
26781.707,41624,18.853243
26787.606,41625,18.634137
26787.640,41626,18.921758
26802.100,41627,18.704817
26817.618,41628,18.831895
26817.710,41629,18.927456
26829.663,41630,18.872788
26829.717,41631,19.104010
26843.712,41632,19.033763
26843.835,41633,19.150312
26854.184,41634,19.288425
26876.720,41635,18.928898
26876.813,41636,18.961353
26882.862,41637,18.682819
26882.956,41638,18.621155
26896.792,41639,18.606875
26911.026,41640,18.308580
26924.657,41641,18.482177
26924.711,41642,18.195133
26924.745,41643,18.110246
26934.686,41644,18.261413
26947.902,41645,18.102962
26947.976,41646,17.934702
26971.669,41647,17.303349
26971.724,41648,17.646576
26971.763,41649,19.331337
26996.870,41650,22.662347
26996.942,41651,23.652360
27004.118,41652,20.102966
27004.167,41653,18.140609
27017.784,41654,17.971556
27030.653,41655,18.015767
27030.721,41656,18.451453
27043.692,41657,18.278217
27043.768,41658,18.499486
27067.765,41659,18.711307
27067.859,41660,18.656351
27067.932,41661,18.942674
27082.692,41662,18.826918
27082.761,41663,19.005203
27108.298,41664,19.168991
27108.381,41665,18.971450
27108.449,41666,19.344896
27122.698,41667,19.223732
27122.777,41668,19.453295
27146.688,41669,19.593571
27146.762,41670,19.530249
27146.818,41671,19.784982
27172.713,41672,19.725121
27172.795,41673,19.790608
27178.737,41674,19.905497
27178.807,41675,19.859844
27191.752,41676,20.132969
27208.617,41677,19.705721
27208.764,41678,19.847728
27218.579,41679,19.843545
27218.620,41680,19.579147
27228.662,41681,19.672761
27251.769,41682,19.539769
27252.272,41683,19.498731
27258.849,41684,19.591408
27259.210,41685,19.493755
27285.675,41686,19.651052
27285.735,41687,19.365090
27285.771,41688,19.549361
27301.734,41689,19.389034
27301.803,41690,19.661654
27314.334,41691,19.753465
27316.437,41692,19.489644
27322.653,41693,19.521233
27346.686,41694,19.636628
27346.746,41695,19.559386
27353.174,41696,19.631075
27353.251,41697,19.827678
27391.718,41698,19.789742
27391.824,41699,19.961897
27391.892,41700,19.979638
27391.927,41701,20.127776
27391.961,41702,20.200114
27407.519,41703,19.892155
27421.668,41704,20.144220
27421.744,41705,19.748272
27433.960,41706,19.607419
27434.112,41707,19.488274
27442.710,41708,19.552967
27468.150,41709,19.565011
27468.203,41710,19.422210
27475.599,41711,19.666631
27475.641,41712,19.780871
27499.767,41713,19.800705
27499.847,41714,19.564290
27499.886,41715,19.007150
27515.200,41716,19.018329
27515.251,41717,20.525743
27528.664,41718,23.734579
27528.731,41719,24.994255
27541.702,41720,21.492678
27557.649,41721,19.847584
27558.043,41722,20.242305
27568.930,41723,20.038490
27569.050,41724,20.343636
27577.686,41725,20.136864
27601.727,41726,19.934851
27601.995,41727,20.073108
27613.427,41728,19.764428
27614.272,41729,20.074118
27619.582,41730,19.982956
27633.728,41731,20.218866
27633.796,41732,20.396213
27662.470,41733,20.225934
27662.602,41734,20.356762
27662.654,41735,20.226944
27681.628,41736,20.279087
27681.673,41737,20.407608
27690.629,41738,20.329212
27690.665,41739,20.624622
27717.847,41740,20.559208
27718.030,41741,20.745498
27718.163,41742,20.901353
27727.748,41743,20.737132
27727.912,41744,20.935971
27753.034,41745,20.574714
27753.087,41746,20.520911
27753.126,41747,20.558847
27771.985,41748,20.560290
27772.149,41749,20.832765
27785.645,41750,20.278871
27785.707,41751,20.149773
27792.869,41752,20.073685
27817.754,41753,19.836693
27825.610,41754,20.094168
27825.772,41755,19.838496
27825.845,41756,19.950069
27834.633,41757,20.031133
27847.679,41758,19.874269
27847.752,41759,20.007189
27871.654,41760,19.819168
27871.705,41761,19.926196
27871.740,41762,19.897276
27897.722,41763,19.861575
27897.842,41764,20.128570
27906.483,41765,20.279953
27908.623,41766,20.370970
27917.558,41767,20.428956
27931.686,41768,20.475907
27931.825,41769,20.739512
27944.723,41770,20.952631
27944.780,41771,20.974196
27969.298,41772,20.818846
27969.361,41773,20.578681
27969.406,41774,20.675901
27984.097,41775,20.459608
27984.246,41776,20.498842
28008.329,41777,20.696455
28008.649,41778,20.253412
28009.054,41779,20.264807
28023.678,41780,20.388063
28023.757,41781,20.329789
28046.680,41782,20.198744
28046.741,41783,19.761398
28046.778,41784,19.729809
28072.654,41785,21.121973
28072.726,41786,24.844531
28077.614,41787,25.585508
28077.651,41788,21.738396
28092.610,41789,20.586614
28107.443,41790,20.894141
28108.068,41791,20.974773
28118.636,41792,20.971960
28118.696,41793,20.817980
28129.783,41794,20.935539
28151.675,41795,21.033480
28151.734,41796,20.872216
28161.329,41797,21.239098
28161.448,41798,21.409955
28183.639,41799,21.292901
28183.686,41800,21.383053
28183.723,41801,21.281867
28199.860,41802,21.552323
28199.929,41803,21.558597
28212.672,41804,21.670963
28212.740,41805,21.778640
28226.787,41806,21.730175
28240.797,41807,21.890213
28240.908,41808,21.715390
28253.820,41809,21.974162
28253.906,41810,22.121651
28286.593,41811,22.041668
28286.665,41812,22.193845
28286.702,41813,21.997818
28292.632,41814,22.025657
28292.698,41815,21.896415
28309.524,41816,21.685026
28320.788,41817,21.909541
28320.857,41818,21.749575
28334.766,41819,21.636056
28334.866,41820,21.565882
28343.697,41821,21.249772
28366.774,41822,21.591557
28366.827,41823,21.316557
28372.737,41824,21.476018
28372.868,41825,21.816288
28386.661,41826,21.683296
28400.661,41827,21.900670
28400.728,41828,21.780588
28413.641,41829,21.680771
28413.688,41830,21.604539
28437.686,41831,21.351969
28437.766,41832,21.822923
28437.801,41833,21.523186
28453.144,41834,21.863455
28453.222,41835,21.913147
28476.661,41836,21.998828
28476.718,41837,22.217717
28476.761,41838,22.043110
28503.416,41839,22.057318
28503.503,41840,22.019959
28508.034,41841,21.695773
28508.517,41842,21.464983
28522.677,41843,21.276962
28536.915,41844,21.153923
28536.992,41845,21.141157
28548.559,41846,20.797281
28548.610,41847,20.954939
28558.037,41848,20.879789
28581.911,41849,21.101563
28582.009,41850,21.046389
28587.660,41851,20.613299
28587.719,41852,20.266610
28599.061,41853,20.456939
28622.676,41854,22.709081
28622.761,41855,26.085888
28627.632,41856,24.891121
28627.699,41857,20.649288
28641.667,41858,20.788915
28656.858,41859,20.807162
28657.162,41860,20.902146
28671.656,41861,20.770236
28671.744,41862,20.841997
28683.752,41863,20.574642
28683.823,41864,20.511391
28693.655,41865,20.688378
28716.710,41866,20.592456
28716.825,41867,20.551707
28734.781,41868,20.662630
28734.982,41869,20.715568
28735.126,41870,20.662919
28748.665,41871,20.590725
28748.722,41872,20.820144
28771.815,41873,20.721193
28771.935,41874,20.994101
28772.030,41875,21.160919
28796.797,41876,21.147288
28796.902,41877,21.360119
28803.284,41878,21.338626
28803.344,41879,21.438082
28817.735,41880,21.494481
28830.755,41881,21.429500
28830.822,41882,21.293911
28844.697,41883,21.187099
28844.745,41884,21.139210
28867.737,41885,21.089013
28867.809,41886,21.085335
28867.864,41887,21.050068
28883.984,41888,20.871927
28884.059,41889,20.859955
28908.704,41890,20.780405
28908.752,41891,20.626065
28908.788,41892,20.811129
28927.720,41893,20.987466
28927.767,41894,20.965108
28952.066,41895,20.551491
28952.195,41896,20.407969
28953.564,41897,20.667967
28976.678,41898,20.856133
28976.739,41899,20.748960
29001.723,41900,20.950900
29001.762,41901,20.820505
29001.795,41902,20.949963
29024.690,41903,20.931428
29024.740,41904,20.926740
29030.678,41905,21.332424
29030.717,41906,21.335309
29030.749,41907,21.480273
29058.068,41908,21.560184
29058.141,41909,20.976287
29081.650,41910,20.756461
29081.699,41911,20.582792
29081.732,41912,20.523724
29109.581,41913,20.631329
29109.682,41914,20.361378
29126.872,41915,20.421672
29126.932,41916,20.286227
29126.973,41917,20.328491
29127.013,41918,20.322216
29127.053,41919,19.799911
29152.709,41920,19.500607
29152.757,41921,19.594653
29152.895,41922,21.379303
29153.034,41923,24.966416
29178.695,41924,24.595855
29216.644,41925,20.646836
29216.705,41926,20.159510
29216.755,41927,20.334982
29216.800,41928,20.194994
29223.564,41929,20.143138
29223.602,41930,20.318754
29223.636,41931,20.130878
29249.843,41932,20.117391
29249.902,41933,20.159293
29273.698,41934,19.985769
29276.559,41935,20.267692
29276.595,41936,20.126478
29300.772,41937,20.118328
29300.820,41938,20.306133
29326.650,41939,20.212159
29326.697,41940,20.493289
29326.732,41941,20.417705
29332.660,41942,20.402055
29332.732,41943,20.349045
29332.778,41944,20.432274
29359.717,41945,20.686791
29359.796,41946,20.481821
29359.857,41947,20.398593
29359.916,41948,20.623540
29385.985,41949,20.556323
29386.033,41950,20.576445
29411.700,41951,20.378399
29411.749,41952,20.278366
29411.784,41953,20.256153
29423.816,41954,19.988798
29423.909,41955,20.185185
29448.758,41956,19.846502
29473.691,41957,19.943506
29473.761,41958,20.035172
29475.580,41959,19.881553
29475.621,41960,19.926629
29500.739,41961,19.915162
29531.925,41962,19.903911
29532.097,41963,19.984326
29532.235,41964,19.976681
29532.286,41965,20.102462
29558.560,41966,20.051688
29558.644,41967,20.149918
29558.809,41968,19.902685
29584.726,41969,19.845204
29584.775,41970,19.990889
29609.718,41971,20.025508
29609.788,41972,19.979855
29609.831,41973,20.113929
29627.681,41974,20.100947
29627.731,41975,20.272380
29634.640,41976,19.898646
29634.676,41977,19.798830
29634.708,41978,19.721515
29636.650,41979,19.358166
29636.719,41980,19.853137
29663.709,41981,19.607996
29687.965,41982,19.336818
29688.054,41983,19.419614
29688.101,41984,19.298955
29688.145,41985,19.699951
29716.638,41986,19.540418
29716.713,41987,18.990923
29722.560,41988,18.978734
29722.599,41989,19.588018
29722.633,41990,21.571507
29747.773,41991,24.783877
29747.822,41992,24.559434
29747.854,41993,21.862085
29774.642,41994,19.517844
29774.689,41995,20.186988
29774.724,41996,19.811162
29774.757,41997,19.600784
29800.713,41998,19.939178
29800.785,41999,19.860638
29800.838,42000,19.839650
29828.034,42001,20.049164
29828.245,42002,19.962113
29832.795,42003,20.125757
29833.081,42004,19.891434
29833.122,42005,19.926052
29836.383,42006,20.295603
29837.022,42007,19.799911
29860.636,42008,19.975888
29860.700,42009,20.402415
29860.752,42010,20.856060
29886.998,42011,21.021508
29887.067,42012,20.860027
29914.164,42013,21.164164
29914.385,42014,20.942895
29914.440,42015,20.882818
29925.103,42016,20.852454
29925.162,42017,20.963450
29935.627,42018,21.060670
29935.669,42019,20.987538
29935.703,42020,21.152913
29961.671,42021,20.976648
29961.755,42022,21.014007
29986.688,42023,21.080359
29986.752,42024,20.798940
29986.797,42025,20.537139
30012.801,42026,20.502592
30012.901,42027,20.168309
30037.720,42028,20.229540
30037.881,42029,20.275121
30037.952,42030,20.418354
30058.204,42031,20.484923
30058.382,42032,20.573488
30082.774,42033,20.540312
30082.824,42034,20.510526
30082.858,42035,20.595557
30082.892,42036,20.682608
30082.924,42037,20.571180
30109.827,42038,20.868465
30135.751,42039,20.589210
30135.808,42040,20.904526
30135.841,42041,21.179670
30161.700,42042,21.188685
30170.731,42043,21.241767
30170.842,42044,21.033840
30170.927,42045,20.861109
30171.010,42046,20.692993
30196.873,42047,20.296180
30196.920,42048,20.558559
30196.951,42049,20.412945
30223.667,42050,20.373855
30223.717,42051,20.556323
30253.794,42052,20.409195
30256.905,42053,20.621737
30256.944,42054,20.319980
30263.665,42055,19.963916
30263.732,42056,19.758514
30286.844,42057,20.801032
30315.001,42058,23.799128
30315.060,42059,26.012685
30339.846,42060,23.630940
30339.906,42061,20.516656
30357.071,42062,21.174261
30357.241,42063,21.010617
30357.281,42064,21.013214
30382.665,42065,21.087715
30382.732,42066,21.146999
30382.785,42067,20.860027
30382.838,42068,21.025618
30409.931,42069,20.976648
30410.254,42070,20.979388
30410.352,42071,20.982562
30436.871,42072,20.941741
30436.943,42073,21.147504
30436.988,42074,21.012204
30457.772,42075,21.093341
30457.954,42076,21.252080
30458.331,42077,21.271986
30459.331,42078,21.543307
30465.372,42079,21.507607
30487.775,42080,21.583263
30487.829,42081,21.856387
30514.339,42082,21.698874
30514.422,42083,21.996448
30514.482,42084,21.797897
30514.527,42085,21.743517
30514.570,42086,21.871461
30538.702,42087,21.664472
30538.762,42088,21.856027
30566.672,42089,21.755634
30566.748,42090,21.715245
30566.804,42091,21.721448
30568.615,42092,21.561338
30568.651,42093,21.684882
30576.657,42094,21.839727
30576.705,42095,21.454093
30626.652,42096,21.350238
30626.729,42097,21.493976
30626.773,42098,21.622858
30659.645,42099,21.487053
30659.721,42100,21.389328
30659.762,42101,21.790540
30663.561,42102,22.049241
30663.630,42103,21.791839
30663.681,42104,21.878673
30663.731,42105,21.938390
30690.614,42106,22.185623
30690.680,42107,22.015704
30690.725,42108,22.167087
30716.655,42109,22.351935
30716.706,42110,22.461416
30716.741,42111,22.365999
30742.697,42112,22.248946
30742.746,42113,22.116530
30742.779,42114,21.990822
30742.811,42115,21.820255
30750.666,42116,21.956348
30750.725,42117,21.910046
30752.997,42118,21.816793
30777.868,42119,21.910190
30777.943,42120,21.905214
30779.701,42121,22.249883
30779.765,42122,21.865331
30779.804,42123,21.405411
30810.985,42124,21.342088
30811.054,42125,22.576666
30833.653,42126,25.982826
30833.708,42127,26.313144
30835.671,42128,22.994395
30841.726,42129,21.966373
30841.775,42130,22.031282
30841.810,42131,22.198749
30841.845,42132,22.205600
30867.618,42133,22.271231
30892.634,42134,22.394920
30892.686,42135,22.172424
30892.721,42136,22.392900
30892.755,42137,22.356912
30919.787,42138,22.482403
30921.813,42139,22.521493
30921.943,42140,22.364268
30948.838,42141,22.716149
30948.891,42142,22.609482
30948.925,42143,22.845463
30975.688,42144,23.044231
30975.805,42145,22.968647
30975.878,42146,23.124430
30975.926,42147,23.181983
31001.691,42148,23.349089
31001.755,42149,23.479990
31001.799,42150,23.228429
31026.735,42151,23.520955
31026.799,42152,23.352118
31056.039,42153,23.470253
31056.110,42154,23.450564
31056.192,42155,23.206793
31063.633,42156,23.318654
31063.694,42157,23.066949
31089.124,42158,23.019204
31089.183,42159,22.904098
31089.225,42160,22.576883
31116.631,42161,22.788487
31116.680,42162,22.657659
31141.787,42163,22.708288
31141.866,42164,22.739300
31141.915,42165,22.494375
31172.788,42166,22.718457
31172.867,42167,22.711101
31198.712,42168,22.642008
31198.804,42169,22.788992
31198.874,42170,22.595778
31223.663,42171,22.769087
31223.734,42172,22.711750
31248.947,42173,22.929197
31249.022,42174,23.050577
31251.683,42175,22.909003
31251.746,42176,23.234560
31251.821,42177,23.105246
31281.666,42178,23.022017
31281.718,42179,23.019493
31311.657,42180,22.614674
31311.716,42181,22.674968
31311.760,42182,22.495890
31336.922,42183,22.401915
31336.993,42184,22.554597
31365.649,42185,22.434226
31365.697,42186,22.717015
31365.731,42187,22.591812
31375.213,42188,22.699489
31375.321,42189,22.752787
31398.811,42190,22.548395
31398.954,42191,22.312196
31399.019,42192,22.305417
31423.740,42193,23.483812
31423.810,42194,26.891703
31449.694,42195,28.032018
31449.769,42196,24.874606
31449.825,42197,22.826351
31468.647,42198,23.054472
31468.714,42199,23.034278
31474.483,42200,22.945424
31474.541,42201,22.945424
31474.583,42202,23.001895
31474.626,42203,22.698335
31474.667,42204,23.075459
31500.677,42205,23.074017
31500.733,42206,23.160707
31500.779,42207,23.168785
31500.817,42208,22.962733
31500.856,42209,23.511507
31551.700,42210,23.115631
31552.007,42211,23.140152
31552.054,42212,23.429432
31552.097,42213,23.486841
31573.675,42214,23.595312
31579.667,42215,23.561487
31579.732,42216,23.794873
31579.782,42217,23.977268
31579.832,42218,23.847089
31611.285,42219,24.060208
31630.628,42220,24.031432
31630.675,42221,23.900242
31630.709,42222,23.626973
31630.743,42223,23.633248
31662.732,42224,23.981812
31666.560,42225,23.693037
31666.598,42226,23.483091
31666.632,42227,23.449338
31666.666,42228,23.342237
31693.805,42229,23.513021
31693.891,42230,23.198499
31693.951,42231,23.195109
31718.651,42232,23.189772
31718.707,42233,22.941890
31749.011,42234,23.156740
31749.117,42235,23.174410
31749.201,42236,23.226626
31758.594,42237,23.112746
31758.695,42238,22.962517
31758.761,42239,23.276751
31758.823,42240,23.461094
31783.674,42241,23.714313
31808.578,42242,23.609448
31808.645,42243,23.509848
31808.683,42244,24.069584
31808.720,42245,24.027537
31837.628,42246,23.775688
31842.648,42247,23.863605
31842.715,42248,23.365172
31846.864,42249,23.512012
31846.996,42250,23.287281
31872.779,42251,23.002184
31897.715,42252,22.992880
31897.787,42253,23.130416
31897.838,42254,23.154793
31897.888,42255,23.101928
31924.736,42256,23.030455
31953.562,42257,22.840199
31953.641,42258,22.319192
31977.631,42259,22.329145
31977.704,42260,23.495712
32003.328,42261,26.592543
32003.437,42262,27.910782
32003.553,42263,24.426658
32029.590,42264,22.590369
32029.687,42265,23.002400
32050.568,42266,22.941890
32050.650,42267,23.002761
32050.703,42268,22.945713
32050.738,42269,23.077190
32050.772,42270,22.966700
32052.595,42271,22.987832
32052.893,42272,22.966556
32058.539,42273,22.704610
32058.643,42274,22.879072
32058.737,42275,22.785603
32083.729,42276,22.901502
32083.826,42277,22.856137
32086.021,42278,22.830174
32110.824,42279,23.073296
32110.884,42280,22.987110
32110.930,42281,23.118732
32110.975,42282,23.208596
32136.682,42283,23.185228
32136.752,42284,23.383779
32136.806,42285,23.342814
32153.535,42286,23.343968
32153.608,42287,23.474941
32153.663,42288,23.281006
32178.808,42289,23.279564
32178.969,42290,23.279275
32180.586,42291,23.116929
32180.633,42292,23.098394
32209.256,42293,22.949751
32209.313,42294,23.038461
32209.362,42295,22.918595
32231.464,42296,22.414969
32231.548,42297,22.751345
32263.726,42298,22.721486
32263.811,42299,22.790363
32266.764,42300,22.874817
32290.911,42301,22.688383
32291.085,42302,23.003482
32291.215,42303,22.684127
32291.350,42304,22.748532
32316.751,42305,22.996919
32341.874,42306,22.723073
32341.930,42307,23.141739
32341.968,42308,23.144191
32342.004,42309,23.253888
32376.884,42310,23.332212
32400.801,42311,23.298459
32400.852,42312,23.462392
32425.665,42313,22.960137
32425.742,42314,22.994972
32425.784,42315,22.816326
32452.004,42316,22.805220
32452.978,42317,22.892126
32453.026,42318,22.922850
32453.067,42319,22.717952
32467.704,42320,22.611789
32467.753,42321,22.459324
32467.793,42322,22.728338
32476.525,42323,22.397372
32476.670,42324,22.270294
32476.793,42325,22.061213
32476.869,42326,21.817081
32476.905,42327,23.356157
32508.656,42328,26.596870
32508.719,42329,27.825101
32528.975,42330,24.721636
32529.039,42331,22.479014
32529.083,42332,23.050073
32553.880,42333,22.564261
32554.026,42334,22.633065
32584.571,42335,22.775794
32584.643,42336,22.605154
32584.688,42337,22.706990
32590.697,42338,22.581138
32590.761,42339,22.604361
32590.813,42340,22.727256
32590.863,42341,22.609842
32617.995,42342,22.813081
32641.721,42343,22.538586
32641.794,42344,22.805508
32641.850,42345,22.896309
32641.904,42346,22.926456
32685.663,42347,23.230881
32685.717,42348,23.014228
32685.752,42349,23.278554
32687.668,42350,23.250210
32687.786,42351,23.068031
32717.830,42352,23.395102
32719.874,42353,23.262110
32719.918,42354,23.457199
32738.605,42355,23.159265
32738.653,42356,23.115631
32764.954,42357,23.160491
32765.030,42358,22.978961
32765.087,42359,22.792166
32770.559,42360,22.750479
32770.598,42361,22.440501
32797.650,42362,22.535052
32797.716,42363,22.358354
32797.761,42364,22.198965
32802.364,42365,22.368235
32802.937,42366,22.314504
32826.760,42367,22.410498
32826.830,42368,22.213462
32826.883,42369,22.361599
32857.823,42370,22.463940
32858.917,42371,22.269067
32877.675,42372,22.434298
32877.749,42373,22.442448
32877.804,42374,22.672011
32907.233,42375,22.730862
32907.301,42376,22.605298
32907.347,42377,23.295863
32907.392,42378,23.053751
32914.607,42379,22.871932
32914.665,42380,22.743123
32914.716,42381,22.343569
32914.766,42382,22.388140
32914.815,42383,22.032364
32941.593,42384,21.879394
32941.663,42385,21.846363
32966.660,42386,21.889636
32966.736,42387,21.938029
32966.792,42388,21.841026
32991.699,42389,21.741570
32991.765,42390,21.721232
33008.628,42391,21.259509
33011.563,42392,20.825697
33011.602,42393,21.174766
33017.646,42394,22.538225
33017.692,42395,26.293454
33017.727,42396,26.555544
33043.660,42397,22.769592
33043.709,42398,21.925480
33068.699,42399,21.968248
33068.774,42400,22.112419
33068.839,42401,21.878889
33098.822,42402,21.813619
33098.876,42403,21.910262
33098.910,42404,21.770346
33098.944,42405,22.028614
33109.646,42406,22.051621
33111.475,42407,21.942140
33111.599,42408,22.206394
33111.686,42409,22.061285
33111.769,42410,22.284646
33132.668,42411,22.193268
33132.718,42412,22.403719
33158.817,42413,22.540966
33158.947,42414,22.403574
33160.108,42415,22.567867
33188.693,42416,22.554236
33188.749,42417,22.807311
33192.604,42418,22.815172
33192.641,42419,22.849574
33192.676,42420,22.912681
33224.965,42421,22.838828
33225.258,42422,22.730502
33225.449,42423,23.043437
33246.738,42424,22.784809
33246.985,42425,22.498703
33272.786,42426,22.367513
33273.641,42427,22.344074
33273.692,42428,22.426653
33306.811,42429,22.288540
33306.918,42430,22.527407
33306.961,42431,22.446559
33307.001,42432,22.417494
33332.695,42433,22.447568
33332.800,42434,22.351647
33332.887,42435,22.467186
33358.603,42436,22.468267
33387.686,42437,22.432207
33387.880,42438,22.505482
33387.974,42439,22.437832
33388.029,42440,22.738651
33390.689,42441,22.582652
33390.761,42442,22.834573
33395.696,42443,22.951843
33395.730,42444,22.914556
33395.762,42445,23.260884
33421.658,42446,23.100630
33421.719,42447,23.059665
33447.716,42448,22.904315
33447.790,42449,22.652755
33447.850,42450,22.710596
33478.754,42451,22.465599
33478.820,42452,22.501804
33483.208,42453,22.766490
33483.320,42454,22.614746
33508.611,42455,22.766130
33508.659,42456,22.558780
33508.694,42457,22.479302
33533.124,42458,22.275342
33533.181,42459,21.720294
33558.652,42460,22.378476
33558.725,42461,24.405526
33558.777,42462,27.828203
33587.672,42463,27.073161
33587.741,42464,22.657082
33612.716,42465,22.896165
33612.800,42466,22.833636
33612.864,42467,22.974273
33637.732,42468,22.998794
33637.786,42469,22.895588
33664.780,42470,22.959776
33664.831,42471,22.858518
33664.863,42472,23.097240
33688.789,42473,23.120680
33688.868,42474,22.999804
33710.247,42475,23.160635
33710.295,42476,23.026633
33710.629,42477,23.031970
33735.964,42478,23.159986
33736.022,42479,22.995116
33736.057,42480,23.345915
33736.090,42481,23.425321
33764.433,42482,23.627118
33787.101,42483,23.737247
33787.193,42484,23.679911
33787.259,42485,24.047370
33787.324,42486,23.943227
33814.375,42487,23.812542
33838.083,42488,23.998544
33838.220,42489,23.702268
33838.304,42490,23.559828
33838.428,42491,23.640893
33865.532,42492,23.456911
33865.584,42493,23.411835
33888.690,42494,22.980042
33888.736,42495,23.050722
33888.772,42496,23.170371
33912.673,42497,22.813586
33912.738,42498,23.036730
33912.787,42499,23.847449
33917.563,42500,23.786146
33917.596,42501,23.214654
33942.800,42502,22.975715
33942.837,42503,23.091254
33968.010,42504,22.666530
33968.106,42505,22.703240
33968.177,42506,23.131498
33993.975,42507,23.126954
33994.025,42508,23.521315
33994.058,42509,23.753475
34023.667,42510,24.023642
34023.718,42511,24.198321
34023.752,42512,24.058189
34023.785,42513,24.321433
34053.102,42514,24.215991
34053.152,42515,23.844564
34053.189,42516,23.683300
34078.673,42517,23.433255
34078.721,42518,23.583484
34107.877,42519,23.522686
34107.929,42520,23.542880
34107.968,42521,23.499823
34123.664,42522,23.382121
34123.712,42523,23.776626
34123.745,42524,23.488067
34123.777,42525,23.650774
34123.810,42526,22.929341
34129.717,42527,22.779400
34129.757,42528,24.722213
34129.791,42529,28.304927
34129.823,42530,28.087985
34156.638,42531,24.200485
34156.683,42532,23.658923
34157.723,42533,24.011021
34181.688,42534,23.822784
34181.737,42535,23.885097
34181.782,42536,23.847305
34213.318,42537,23.767611
34213.373,42538,23.995803
34213.414,42539,23.787372
34213.458,42540,23.991548
34218.562,42541,24.140840
34218.598,42542,24.084513
34218.631,42543,24.431274
34243.662,42544,24.357998
34243.710,42545,24.261572
34269.817,42546,24.417282
34269.863,42547,24.461565
34269.897,42548,24.706995
34297.799,42549,24.496616
34297.846,42550,24.616049
34332.619,42551,24.986466
34332.679,42552,25.036951
34332.713,42553,25.157683
34358.218,42554,24.959493
34358.306,42555,24.993462
34390.651,42556,25.055198
34390.700,42557,25.143403
34390.733,42558,24.797940
34416.605,42559,24.777674
34416.654,42560,24.583234
34416.693,42561,24.468633
34416.732,42562,24.432500
34442.709,42563,24.591168
34467.639,42564,24.605808
34467.679,42565,24.479812
34467.712,42566,24.566213
34467.800,42567,24.313139
34490.700,42568,24.179569
34516.414,42569,24.273183
34516.701,42570,24.294026
34516.777,42571,24.283497
34516.878,42572,24.237699
34541.882,42573,24.417571
34566.825,42574,24.572849
34566.954,42575,24.629248
34567.042,42576,24.702812
34567.117,42577,24.773852
34589.921,42578,24.946727
34589.980,42579,24.714279
34590.014,42580,24.519623
34592.762,42581,24.445121
34592.824,42582,24.493803
34596.834,42583,24.430192
34596.873,42584,24.132041
34596.905,42585,24.030999
34598.833,42586,24.146754
34598.872,42587,24.132907
34623.755,42588,24.121511
34623.805,42589,24.301599
34623.839,42590,24.196446
34650.872,42591,24.239358
34650.920,42592,23.764654
34650.952,42593,23.624593
34650.982,42594,24.331818
34676.852,42595,27.305898
34676.986,42596,29.720169
34677.096,42597,27.159924
34695.019,42598,23.852570
34695.065,42599,24.658962
34695.097,42600,24.325471
34723.489,42601,24.449881
34723.661,42602,24.366004
34724.128,42603,24.120790
34724.434,42604,24.273472
34748.877,42605,24.142427
34749.156,42606,24.703100
34749.619,42607,24.555612
34781.666,42608,24.100236
34781.720,42609,24.542413
34781.757,42610,24.302032
34781.793,42611,24.483201
34787.566,42612,24.478081
34787.624,42613,24.826356
34787.683,42614,25.079431
34812.829,42615,25.371740
34812.888,42616,25.024907
34812.933,42617,25.179536
34838.714,42618,25.342459
34838.768,42619,25.322481
34841.034,42620,25.347940
34841.123,42621,25.323923
34868.688,42622,25.135542
34870.538,42623,25.299258
34870.575,42624,25.554568
34896.249,42625,25.225910
34896.358,42626,25.304883
34896.444,42627,25.142177
34921.663,42628,24.839410
34921.810,42629,24.620882
34921.856,42630,24.884558
34921.893,42631,24.904680
34947.737,42632,24.646845
34975.739,42633,24.732165
34975.784,42634,24.885568
34975.817,42635,24.767289
34975.848,42636,24.799311
34983.783,42637,24.966488
34983.820,42638,25.385155
35009.630,42639,25.003126
35009.698,42640,24.957401
35009.738,42641,24.985168
35035.776,42642,25.091836
35035.831,42643,25.322697
35060.724,42644,25.515262
35060.798,42645,25.536105
35060.858,42646,25.642917
35081.718,42647,25.395396
35081.766,42648,24.950477
35087.811,42649,24.773635
35112.643,42650,25.048419
35112.693,42651,25.326736
35138.166,42652,25.022960
35138.245,42653,24.994039
35138.311,42654,25.081667
35166.667,42655,24.832775
35166.737,42656,24.941895
35166.790,42657,24.649802
35166.842,42658,24.306071
35176.253,42659,23.957651
35176.364,42660,24.514214
35176.450,42661,26.986904
35202.666,42662,29.863475
35202.821,42663,28.599039
35203.034,42664,24.845613
35227.650,42665,25.181844
35227.706,42666,25.297022
35227.743,42667,25.111886
35227.798,42668,25.099986
35257.221,42669,25.112463
35257.273,42670,24.946150
35257.313,42671,25.073517
35264.598,42672,24.811066
35264.651,42673,25.254037
35264.692,42674,25.303152
35264.732,42675,25.225477
35288.734,42676,25.145783
35291.879,42677,25.296229
35291.987,42678,25.524998
35319.626,42679,25.563583
35319.685,42680,25.445304
35342.908,42681,25.494779
35360.886,42682,25.454536
35360.951,42683,25.477903
35369.516,42684,25.741868
35369.598,42685,25.711577
35392.698,42686,25.681935
35420.026,42687,25.668665
35420.097,42688,25.514324
35420.146,42689,25.583201
35420.192,42690,25.558823
35442.751,42691,25.439102
35461.673,42692,25.376139
35461.762,42693,25.166338
35461.835,42694,25.167852
35461.906,42695,25.089456
35486.709,42696,25.044236
35486.777,42697,25.085994
35486.827,42698,24.906339
35511.649,42699,24.909801
35511.741,42700,24.907204
35541.881,42701,24.755605
35541.941,42702,24.880087
35541.983,42703,24.648432
35553.684,42704,24.729280
35554.245,42705,24.625786
35577.688,42706,24.641292
35577.760,42707,24.771183
35577.813,42708,24.747960
35607.229,42709,25.260456
35607.312,42710,24.986899
35607.360,42711,24.819072
35607.406,42712,25.099625
35630.690,42713,25.008247
35630.754,42714,25.141095
35630.796,42715,24.932159
35660.638,42716,24.919682
35660.687,42717,25.176867
35660.723,42718,24.860830
35686.682,42719,25.493481
35686.745,42720,25.597697
35686.789,42721,24.892708
35712.676,42722,24.270803
35712.747,42723,24.229333
35712.795,42724,24.620088
35712.843,42725,24.445338
35745.667,42726,24.275635
35745.738,42727,25.320822
35751.586,42728,27.424466
35751.625,42729,30.728718
35751.659,42730,29.078792
35778.078,42731,24.511906
35778.195,42732,25.294498
35778.285,42733,24.968075
35778.369,42734,25.165472
35804.867,42735,25.168213
35834.312,42736,25.082893
35834.373,42737,25.187325
35834.417,42738,24.955814
35834.466,42739,25.143259
35841.566,42740,25.408738
35841.604,42741,25.341449
35841.639,42742,25.520815
35870.802,42743,25.311013
35870.891,42744,24.880808
35870.965,42745,24.977307
35894.641,42746,25.269327
35894.706,42747,25.385082
35894.747,42748,25.526008
35894.788,42749,25.728453
35920.769,42750,25.837862
35920.878,42751,25.976552
35920.947,42752,26.190104
35949.846,42753,26.257754
35949.907,42754,25.721169
35953.173,42755,25.387607
35953.238,42756,25.336400
35953.321,42757,25.673064
35955.904,42758,25.784780
35956.215,42759,25.825890
35980.688,42760,25.593947
35980.758,42761,25.543029
36007.709,42762,25.434125
36008.038,42763,25.220212
36008.330,42764,25.261033
36032.986,42765,25.154149
36033.085,42766,25.044452
36058.793,42767,25.229877
36058.919,42768,25.138210
36059.028,42769,25.240623
36083.662,42770,25.079864
36083.743,42771,25.242642
36109.924,42772,25.532499
36110.058,42773,25.465354
36110.151,42774,25.607938
36135.660,42775,25.504804
36135.716,42776,25.757663
36160.865,42777,25.937390
36160.986,42778,25.956863
36161.022,42779,25.967465
36179.687,42780,25.515046
36179.748,42781,25.216246
36206.987,42782,25.404195
36207.047,42783,25.070416
36207.090,42784,24.994977
36229.816,42785,25.103231
36229.890,42786,24.945357
36262.661,42787,25.133522
36262.724,42788,25.027215
36262.771,42789,24.980119
36271.640,42790,24.970960
36271.718,42791,24.615761
36271.783,42792,24.232362
36271.836,42793,24.543423
36296.698,42794,26.446352
36296.772,42795,29.992573
36296.827,42796,29.387112
36323.782,42797,25.146143
36323.848,42798,24.681392
36323.890,42799,25.095009
36351.722,42800,25.150254
36351.801,42801,24.917085
36351.852,42802,25.055126
36351.901,42803,24.900786
36361.147,42804,24.893285
36361.216,42805,24.906123
36361.259,42806,24.714135
36383.694,42807,24.979903
36383.762,42808,24.783516
36386.679,42809,24.808831
36386.731,42810,24.900425
36386.766,42811,24.622540
36410.785,42812,24.771327
36410.833,42813,24.697475
36442.692,42814,24.716154
36442.911,42815,24.987764
36442.950,42816,24.869485
36447.559,42817,25.005434
36447.609,42818,24.847776
36447.656,42819,24.857873
36447.701,42820,24.947016
36473.687,42821,24.852320
36476.543,42822,25.025917
36476.580,42823,24.770246
36501.654,42824,24.581143
36501.711,42825,24.416705
36531.646,42826,24.243974
36531.709,42827,24.512771
36531.752,42828,24.123531
36538.821,42829,23.921013
36538.996,42830,24.064824
36564.626,42831,23.903416
36564.679,42832,24.120935
36564.715,42833,24.082061
36589.747,42834,24.075498
36615.618,42835,24.216135
36615.699,42836,24.207120
36615.740,42837,24.510247
36615.778,42838,23.859277
36641.917,42839,23.810523
36641.970,42840,24.119492
36647.574,42841,24.064608
36647.622,42842,24.236762
36647.657,42843,24.200773
36650.596,42844,24.266115
36650.642,42845,24.161900
36675.765,42846,23.940486
36675.883,42847,24.376966
36701.290,42848,23.936519
36701.358,42849,23.386953
36701.415,42850,23.123132
36732.795,42851,22.941097
36732.877,42852,23.393227
36738.655,42853,23.174554
36764.712,42854,23.146066
36764.764,42855,23.421715
36788.745,42856,22.901430
36788.845,42857,22.550919
36791.612,42858,23.068175
36816.904,42859,24.506136
36817.027,42860,27.176800
36817.094,42861,27.663982
36817.160,42862,24.122954
36844.675,42863,22.831183
36844.726,42864,23.125368
36844.760,42865,22.986894
36870.693,42866,23.004708
36870.748,42867,22.993529
36870.787,42868,22.864287
36870.824,42869,22.732305
36870.861,42870,22.680954
36896.730,42871,22.822962
36896.807,42872,23.029951
36896.853,42873,22.852315
36896.897,42874,22.930134
36922.790,42875,22.713769
36922.864,42876,22.783511
36922.905,42877,22.824620
36957.219,42878,22.705908
36957.383,42879,22.824332
36957.877,42880,23.010838
36960.574,42881,22.825053
36960.620,42882,23.241411
36960.660,42883,23.414936
36960.698,42884,23.929668
36986.643,42885,23.556727
36986.695,42886,23.020791
36986.730,42887,22.950905
37015.671,42888,23.095437
37016.830,42889,22.955882
37037.930,42890,23.089235
37038.141,42891,22.790579
37051.756,42892,22.737714
37051.948,42893,22.700499
37052.093,42894,22.409921
37075.751,42895,22.544644
37075.872,42896,22.603712
37075.967,42897,22.565271
37101.837,42898,22.552505
37105.880,42899,22.249162
37125.606,42900,22.410714
37125.662,42901,22.390592
37125.703,42902,22.369461
37137.737,42903,22.267697
37137.799,42904,22.373860
37163.578,42905,22.652178
37163.640,42906,22.566930
37163.675,42907,22.727400
37188.668,42908,22.915421
37188.717,42909,22.731728
37190.535,42910,22.696316
37190.571,42911,22.490264
37208.812,42912,22.187282
37208.883,42913,22.003155
37208.935,42914,21.785708
37237.683,42915,22.035393
37237.761,42916,21.826385
37237.835,42917,21.759240
37263.781,42918,21.650120
37263.845,42919,21.562852
37288.690,42920,21.584777
37288.757,42921,21.615285
37290.570,42922,21.373533
37290.627,42923,21.072858
37290.680,42924,21.760033
37315.686,42925,24.511473
37315.755,42926,27.364821
37342.677,42927,25.520094
