timestamp_ms,sample_index,raw_ecg_mv
14.699,6042,6.323336
24.686,6043,6.146277
24.750,6044,5.731722
37.692,6045,5.754801
37.742,6046,6.294992
50.650,6047,8.639522
64.840,6048,12.050010
64.972,6049,10.779515
78.757,6050,6.423801
78.827,6051,6.437793
92.954,6052,6.548788
93.056,6053,6.832875
107.869,6054,6.610813
119.674,6055,6.667572
119.725,6056,6.559895
133.437,6057,6.595956
133.531,6058,6.691517
146.710,6059,6.513160
160.630,6060,6.782246
160.673,6061,6.705292
174.715,6062,6.720510
174.773,6063,6.836337
183.198,6064,6.784265
207.997,6065,6.937596
208.052,6066,6.903482
212.706,6067,7.091648
212.810,6068,7.226082
225.715,6069,7.289261
239.694,6070,7.557409
239.745,6071,7.647489
253.740,6072,7.700498
253.871,6073,7.924436
278.711,6074,7.860969
278.764,6075,7.940159
278.802,6076,7.849069
293.734,6077,7.685930
293.821,6078,7.465238
317.679,6079,7.180574
317.728,6080,6.965435
317.762,6081,6.807993
333.698,6082,6.661658
333.747,6083,6.628194
357.090,6084,6.457482
359.601,6085,6.497654
359.665,6086,6.413272
372.792,6087,6.386731
372.837,6088,6.440750
397.691,6089,6.357017
397.742,6090,6.352834
397.775,6091,6.328601
421.762,6092,6.351319
421.834,6093,6.460728
427.633,6094,6.380312
427.681,6095,6.420412
441.755,6096,6.425100
456.859,6097,6.423513
458.106,6098,6.464478
468.683,6099,6.390625
468.735,6100,6.436351
477.721,6101,6.364806
501.944,6102,6.444572
502.021,6103,6.535301
507.672,6104,6.388029
507.719,6105,6.449982
532.861,6106,6.388318
533.002,6107,6.397838
533.037,6108,6.443274
547.716,6109,6.359397
547.814,6110,6.388822
571.727,6111,6.354348
571.784,6112,6.352185
571.821,6113,6.456905
589.675,6114,6.318864
589.733,6115,6.385937
602.866,6116,6.314176
602.934,6117,6.316124
615.681,6118,6.370287
629.681,6119,6.302421
629.754,6120,6.456256
645.352,6121,6.581603
645.420,6122,6.595667
654.511,6123,6.755128
676.800,6124,6.689497
676.851,6125,6.865835
684.965,6126,6.731472
685.069,6127,6.601870
695.808,6128,6.556145
708.714,6129,6.323913
708.777,6130,6.372523
732.653,6131,6.193805
732.703,6132,6.241189
732.739,6133,6.306243
757.649,6134,6.179453
757.700,6135,6.307613
762.771,6136,6.193733
762.840,6137,6.185367
787.781,6138,6.182050
787.866,6139,5.669049
787.920,6140,5.447202
803.804,6141,6.422143
827.636,6142,9.264528
827.696,6143,11.856579
827.731,6144,9.769163
827.766,6145,5.970156
842.709,6146,6.527224
843.007,6147,6.476955
866.675,6148,6.478397
866.730,6149,6.519651
866.771,6150,6.473205
892.740,6151,6.513376
892.820,6152,6.394592
899.808,6153,6.556794
899.880,6154,6.455535
910.216,6155,6.533066
922.696,6156,6.606413
922.744,6157,6.551096
946.686,6158,6.675073
946.745,6159,6.611895
946.788,6160,6.750224
972.689,6161,6.812393
972.739,6162,6.783977
977.633,6163,7.058977
977.668,6164,7.116385
1003.171,6165,7.238199
1003.227,6166,7.439490
1003.268,6167,7.483412
1019.716,6168,7.665664
1019.788,6169,7.685281
1034.745,6170,7.680881
1034.805,6171,7.756898
1044.120,6172,7.552865
1067.670,6173,7.442808
1067.720,6174,7.169467
1072.605,6175,6.935288
1072.655,6176,6.805974
1085.706,6177,6.560616
1099.751,6178,6.530181
1099.810,6179,6.381177
1114.089,6180,6.366465
1114.182,6181,6.316124
1123.710,6182,6.259653
1148.966,6183,6.315980
1149.079,6184,6.252296
1155.921,6185,6.302565
1156.029,6186,6.423946
1166.671,6187,6.337255
1179.693,6188,6.340285
1179.754,6189,6.348795
1193.681,6190,6.309489
1193.732,6191,6.412478
1217.717,6192,6.346848
1217.801,6193,6.409954
1217.865,6194,6.350959
1232.811,6195,6.314826
1232.971,6196,6.356656
1259.328,6197,6.309416
1259.378,6198,6.412118
1281.688,6199,6.311724
1281.750,6200,6.262970
1281.788,6201,6.365599
1297.796,6202,6.279919
1297.854,6203,6.388534
1301.808,6204,6.273500
1315.697,6205,6.270038
1315.768,6206,6.302132
1329.717,6207,6.228640
1329.948,6208,6.291530
1337.686,6209,6.212773
1361.700,6210,6.278621
1361.763,6211,6.243786
1370.737,6212,6.152047
1370.796,6213,6.328889
1378.649,6214,6.325644
1393.839,6215,6.474936
1394.013,6216,6.536672
1416.687,6217,6.562059
1416.754,6218,6.717625
1416.802,6219,6.638868
1442.773,6220,6.562635
1442.823,6221,6.521887
1450.933,6222,6.275880
1451.082,6223,6.150028
1464.815,6224,6.127165
1464.953,6225,6.131492
1473.705,6226,6.151614
1496.752,6227,6.011554
1496.810,6228,6.128824
1502.954,6229,6.005496
1503.057,6230,6.042134
1515.867,6231,6.083243
1530.701,6232,5.822091
1530.774,6233,5.460473
1543.702,6234,5.181434
1543.760,6235,6.429860
1552.768,6236,9.626434
1577.628,6237,11.502895
1577.722,6238,9.048163
1582.723,6239,5.750113
1582.792,6240,6.433105
1597.878,6241,6.366753
1609.721,6242,6.361200
1609.775,6243,6.371730
1624.585,6244,6.291458
1624.638,6245,6.337183
1648.717,6246,6.315547
1648.786,6247,6.223664
1648.837,6248,6.388101
1662.693,6249,6.469743
1662.771,6250,6.362714
1688.773,6251,6.490297
1688.861,6252,6.366104
1688.928,6253,6.482869
1707.839,6254,6.590691
1707.900,6255,6.552611
1726.740,6256,6.764648
1726.789,6257,6.780515
1726.825,6258,6.986278
1743.730,6259,7.108740
1743.780,6260,7.151148
1766.850,6261,7.425282
1766.921,6262,7.402348
1766.961,6263,7.479950
1792.822,6264,7.548178
1792.895,6265,7.397660
1797.708,6266,7.411868
1797.740,6267,7.140979
1811.697,6268,6.907954
1824.653,6269,6.754335
1824.712,6270,6.482076
1838.899,6271,6.427912
1839.002,6272,6.216452
1847.865,6273,6.171881
1871.816,6274,6.152624
1871.877,6275,6.039393
1878.808,6276,6.105312
1878.860,6277,6.043648
1903.132,6278,6.070766
1907.117,6279,6.107692
1907.250,6280,5.988187
1918.233,6281,6.114400
1918.295,6282,6.052663
1942.844,6283,6.095143
1942.893,6284,6.130194
1942.926,6285,6.015016
1957.708,6286,6.159259
1957.797,6287,6.133800
1981.844,6288,6.138705
1981.892,6289,6.131492
1981.925,6290,6.025329
2007.749,6291,6.075742
2007.901,6292,6.046749
2013.662,6293,6.093845
2013.721,6294,6.082233
2026.768,6295,6.001313
2039.688,6296,5.996841
2039.728,6297,5.890606
2057.018,6298,5.975421
2057.073,6299,6.002323
2062.605,6300,5.929119
2086.836,6301,5.924648
2086.884,6302,5.837741
2092.782,6303,5.960204
2092.819,6304,5.951910
2107.530,6305,5.829159
2120.814,6306,5.908060
2120.871,6307,5.782856
2133.768,6308,5.935466
2133.800,6309,6.104375
2147.921,6310,6.025474
2148.000,6311,6.198566
2161.883,6312,6.182122
2188.782,6313,6.196979
2188.833,6314,6.208158
2188.867,6315,5.970084
2188.902,6316,5.937197
2198.834,6317,5.650081
2212.911,6318,5.672294
2213.071,6319,5.657221
2236.846,6320,5.553726
2236.896,6321,5.615246
2236.929,6322,5.429749
2261.923,6323,5.484345
2262.083,6324,5.468550
2267.922,6325,5.434653
2268.064,6326,5.360656
2281.794,6327,4.858041
2294.826,6328,4.549504
2294.865,6329,5.711168
2308.827,6330,8.540427
2308.910,6331,10.945251
2321.786,6332,8.509054
2334.829,6333,5.042312
2334.869,6334,5.656571
2348.957,6335,5.473527
2349.002,6336,5.656860
2373.784,6337,5.483696
2373.832,6338,5.459463
2373.865,6339,5.469921
2387.852,6340,5.367508
2387.890,6341,5.413377
2412.931,6342,5.381067
2413.093,6343,5.478287
2413.130,6344,5.485210
2428.023,6345,5.360368
2428.125,6346,5.571684
2453.027,6347,5.528556
2453.172,6348,5.535696
2453.317,6349,5.613515
2477.848,6350,5.556899
2477.909,6351,5.716288
2483.950,6352,5.833774
2483.993,6353,5.895871
2496.929,6354,6.031676
2509.657,6355,6.042783
2509.729,6356,6.234771
2523.669,6357,6.251431
2523.720,6358,6.204840
2532.729,6359,6.270831
2557.845,6360,6.033479
2557.906,6361,5.901785
2575.817,6362,5.672510
2575.889,6363,5.353444
2589.752,6364,5.202926
2589.815,6365,4.910401
2589.858,6366,4.811594
2607.266,6367,4.773298
2607.319,6368,4.667928
2618.448,6369,4.607634
2631.716,6370,4.496856
2631.772,6371,4.556428
2644.832,6372,4.532195
2644.871,6373,4.489067
2658.638,6374,4.575612
2658.681,6375,4.429422
2667.696,6376,4.439014
2691.945,6377,4.435192
2691.993,6378,4.415647
2697.817,6379,4.423796
2697.855,6380,4.327514
2710.702,6381,4.447669
2725.722,6382,4.389034
2725.771,6383,4.365306
2737.595,6384,4.426465
2737.628,6385,4.289578
2750.902,6386,4.286693
2766.031,6387,4.225174
2766.312,6388,4.136248
2778.878,6389,4.201734
2778.925,6390,4.117568
2807.836,6391,4.164808
2807.894,6392,4.132137
2807.934,6393,4.053452
2817.724,6394,4.111510
2817.765,6395,3.989264
2842.842,6396,4.036287
2842.893,6397,4.023594
2842.941,6398,3.952914
2857.763,6399,4.103576
2857.808,6400,4.121463
2881.749,6401,4.225606
2881.791,6402,4.340135
2881.824,6403,4.348429
2907.644,6404,4.353550
2907.697,6405,4.174328
2913.634,6406,4.093479
2913.673,6407,3.937625
2925.802,6408,3.858147
2939.686,6409,3.772538
2939.722,6410,3.688228
2955.453,6411,3.732366
2955.507,6412,3.643801
2964.136,6413,3.557616
2987.856,6414,3.668178
2987.977,6415,3.568650
2992.949,6416,3.595191
2992.995,6417,3.453544
3007.852,6418,3.010645
3020.116,6419,2.819811
3020.179,6420,4.133507
3033.669,6421,7.574790
3033.716,6422,8.979864
3058.664,6423,5.769947
3058.719,6424,3.402266
3058.758,6425,3.940437
3096.861,6426,3.800593
3096.923,6427,3.969502
3096.958,6428,3.767562
3096.991,6429,3.823240
3098.771,6430,3.800521
3113.645,6431,3.789703
3113.708,6432,3.944620
3136.770,6433,3.925869
3136.817,6434,4.043355
3136.856,6435,3.864493
3161.652,6436,4.001452
3161.710,6437,4.104947
3168.289,6438,4.136103
3168.347,6439,4.279409
3178.735,6440,4.210677
3201.813,6441,4.373311
3202.016,6442,4.561765
3208.634,6443,4.673914
3208.680,6444,4.903910
3220.870,6445,4.977618
3234.716,6446,5.085368
3234.757,6447,5.134627
3249.089,6448,5.115443
3249.135,6449,5.200402
3272.813,6450,5.215620
3272.930,6451,5.015266
3272.990,6452,4.892226
3287.772,6453,4.633743
3287.808,6454,4.447524
3312.782,6455,4.319076
3312.905,6456,4.157235
3313.005,6457,4.237578
3328.788,6458,4.048764
3328.835,6459,4.062539
3351.803,6460,4.010035
3351.850,6461,4.037585
3351.883,6462,4.044653
3376.843,6463,3.971594
3376.964,6464,4.069030
3382.763,6465,4.047610
3382.832,6466,4.127665
3395.830,6467,4.236497
3410.676,6468,4.186156
3410.724,6469,4.153485
3424.952,6470,4.129757
3425.068,6471,4.145768
3433.706,6472,4.282727
3457.474,6473,4.261883
3457.528,6474,4.323620
3463.666,6475,4.288785
3463.735,6476,4.274216
3476.997,6477,4.358671
3490.691,6478,4.254455
3490.740,6479,4.322538
3503.698,6480,4.249623
3506.406,6481,4.218827
3517.733,6482,4.459497
3530.550,6483,4.316552
3530.599,6484,4.431441
3544.930,6485,4.352612
3545.072,6486,4.390909
3559.756,6487,4.484739
3559.819,6488,4.375186
3574.739,6489,4.539912
3599.697,6490,4.644921
3599.758,6491,4.695046
3599.808,6492,4.816859
3599.843,6493,4.955333
3624.693,6494,5.105490
3652.690,6495,5.043682
3652.756,6496,5.005313
3652.798,6497,4.906507
3652.837,6498,4.682857
3680.744,6499,4.734208
3708.585,6500,4.672255
3708.644,6501,4.597537
3708.688,6502,4.732549
3708.731,6503,4.674347
3732.699,6504,4.711922
3758.681,6505,4.716610
3758.792,6506,4.717331
3758.879,6507,4.772432
3758.964,6508,4.467574
3788.784,6509,4.105740
3788.965,6510,4.186156
3789.053,6511,5.830457
3789.134,6512,9.521930
3789.219,6513,9.885712
3814.706,6514,6.238593
3814.798,6515,4.859555
3814.868,6516,5.367219
3842.787,6517,5.400323
3842.899,6518,5.328634
3867.660,6519,5.403280
3867.709,6520,5.346665
3867.744,6521,5.366715
3894.793,6522,5.457876
3894.840,6523,5.451458
3919.700,6524,5.552139
3919.755,6525,5.538004
3919.796,6526,5.587118
3947.479,6527,5.771389
3947.592,6528,5.704749
3972.735,6529,5.857502
3972.823,6530,5.890606
3972.890,6531,5.983859
3992.829,6532,6.171015
3992.908,6533,6.194599
3998.719,6534,6.435413
3998.763,6535,6.554197
3998.800,6536,6.688776
4024.723,6537,6.849391
4024.787,6538,6.792992
4026.600,6539,6.936442
4052.626,6540,6.873768
4052.699,6541,6.870018
4052.740,6542,6.768110
4052.814,6543,6.490009
4077.881,6544,6.398342
4078.005,6545,6.136685
4102.462,6546,5.993812
4102.540,6547,6.023166
4102.575,6548,5.833558
4124.805,6549,5.844809
4125.051,6550,5.878995
4149.689,6551,5.776870
4149.741,6552,5.857430
4149.778,6553,5.826779
4176.728,6554,5.864498
4176.795,6555,5.940226
4208.162,6556,5.872287
4208.247,6557,6.000664
4208.314,6558,5.972897
4214.698,6559,6.019488
4214.772,6560,6.127670
4239.730,6561,6.032686
4239.786,6562,6.127237
4239.823,6563,6.105745
4268.073,6564,6.141806
4268.211,6565,6.243137
4292.722,6566,6.146277
4292.777,6567,6.232102
4292.816,6568,6.162144
4292.854,6569,6.212773
4292.892,6570,6.302926
4325.038,6571,6.205922
4325.115,6572,6.264557
4330.743,6573,6.220058
4330.817,6574,6.287275
4330.871,6575,6.261095
4357.874,6576,6.253666
4357.944,6577,6.384062
4381.784,6578,6.391707
4381.837,6579,6.576771
4381.873,6580,6.689858
4407.702,6581,6.582757
4407.786,6582,6.921008
4433.809,6583,6.911271
4433.878,6584,6.846795
4433.930,6585,6.794651
4459.715,6586,6.558741
4459.793,6587,6.502342
4484.945,6588,6.431014
4485.048,6589,6.425532
4485.120,6590,6.506164
4512.717,6591,6.381538
4512.791,6592,6.496139
4540.707,6593,6.377571
4540.785,6594,6.389976
4540.848,6595,6.525276
4540.898,6596,6.401227
4545.628,6597,6.238232
4545.690,6598,5.726602
4545.741,6599,6.022156
4569.707,6600,8.027209
4569.777,6601,11.601485
4569.827,6602,11.167385
4594.752,6603,6.982528
4594.859,6604,6.734285
4620.957,6605,7.101168
4621.023,6606,6.973296
4621.069,6607,7.083858
4646.921,6608,6.999981
4647.092,6609,7.034960
4651.608,6610,7.044552
4652.300,6611,6.991687
4652.555,6612,7.118405
4678.135,6613,7.107442
4678.201,6614,7.227453
4678.248,6615,7.279885
4678.288,6616,7.249161
4707.328,6617,7.460189
4707.387,6618,7.431341
4707.423,6619,7.474974
4731.613,6620,7.606524
4731.711,6621,7.576305
4731.787,6622,7.932946
4757.859,6623,7.977157
4757.954,6624,8.168207
4776.693,6625,8.231097
4776.743,6626,8.277688
4776.778,6627,8.479484
4776.811,6628,8.335313
4776.845,6629,8.374547
4780.563,6630,8.437726
4780.611,6631,8.020141
4806.036,6632,8.003986
4806.127,6633,7.749613
4806.179,6634,7.573276
4831.878,6635,7.508943
4832.038,6636,7.292290
4860.822,6637,7.411363
4860.955,6638,7.289333
4861.009,6639,7.268634
4870.028,6640,7.291064
4870.091,6641,7.219952
4894.697,6642,7.254643
4894.771,6643,7.255652
4894.828,6644,7.380567
4922.711,6645,7.522430
4922.777,6646,7.257095
4922.820,6647,7.351646
4922.861,6648,7.324384
4947.705,6649,7.331380
4947.760,6650,7.431485
4947.800,6651,7.369244
4980.358,6652,7.462353
4980.431,6653,7.376600
5011.414,6654,7.185766
5011.572,6655,7.445476
5011.676,6656,7.298276
5011.779,6657,7.409343
5011.876,6658,7.371407
5031.691,6659,7.190743
5031.744,6660,7.440284
5055.697,6661,7.308301
5058.754,6662,7.356334
5058.798,6663,7.483557
5078.829,6664,7.121001
5078.888,6665,7.299719
5086.887,6666,7.231780
5111.355,6667,7.315585
5112.658,6668,7.485143
5134.745,6669,7.475263
5134.794,6670,7.685569
5134.829,6671,7.602701
5160.696,6672,7.801757
5160.770,6673,7.790073
5189.762,6674,7.775866
5189.818,6675,7.549043
5189.858,6676,7.355396
5214.682,6677,7.366503
5214.731,6678,7.206105
5216.630,6679,7.165572
5216.668,6680,7.176607
5242.683,6681,7.110327
5242.737,6682,7.221250
5242.775,6683,7.163409
5266.715,6684,7.040513
5266.777,6685,7.191248
5271.778,6686,6.926561
5271.822,6687,6.555207
5271.855,6688,6.225178
5277.672,6689,7.206898
5277.723,6690,10.149605
5277.755,6691,12.435572
5277.787,6692,10.091907
5304.020,6693,6.653581
5304.344,6694,7.338808
5304.387,6695,7.326476
5330.683,6696,7.252767
5330.741,6697,7.274043
5358.260,6698,7.332245
5358.324,6699,7.113645
5358.362,6700,7.145162
5381.724,6701,6.984331
5381.775,6702,7.406170
5400.687,6703,7.413526
5402.738,6704,7.381072
5402.783,6705,7.485648
5427.750,6706,7.332318
5427.816,6707,7.459107
5427.856,6708,7.480167
5455.895,6709,7.600610
5455.952,6710,7.755527
5478.730,6711,7.768942
5478.799,6712,8.044519
5478.849,6713,7.855776
5478.898,6714,8.107553
5478.931,6715,8.373682
5512.757,6716,8.240112
5512.839,6717,8.326731
5519.663,6718,8.261100
5519.721,6719,8.197272
5519.798,6720,8.199147
5545.748,6721,7.939077
5545.817,6722,7.782356
5570.431,6723,7.487018
5570.502,6724,7.286881
5570.553,6725,7.468988
5596.799,6726,6.893025
5596.871,6727,7.140979
5604.790,6728,7.073112
5605.521,6729,6.972286
5609.621,6730,7.045634
5631.758,6731,6.940841
5631.868,6732,6.981374
5631.963,6733,6.966300
5632.023,6734,6.968103
5658.165,6735,7.013251
5683.816,6736,7.001279
5683.888,6737,7.100302
5683.940,6738,7.058111
5683.979,6739,6.914228
5692.737,6740,7.208196
5692.823,6741,7.093234
5692.880,6742,7.125545
5694.798,6743,7.082560
5694.882,6744,7.025296
5720.713,6745,7.135209
5720.786,6746,6.901968
5720.844,6747,7.079387
5747.698,6748,7.059121
5747.769,6749,6.977551
5771.689,6750,7.066694
5771.749,6751,6.933990
5771.790,6752,6.924542
5791.719,6753,7.247214
5791.780,6754,7.105134
5797.612,6755,7.225289
5797.675,6756,7.418863
5797.720,6757,7.421748
5824.846,6758,7.428239
5824.907,6759,7.199109
5849.781,6760,7.081767
5849.853,6761,6.950866
5849.907,6762,6.784193
5874.715,6763,6.869513
5874.768,6764,6.652211
5877.689,6765,6.653581
5877.758,6766,6.744526
5894.324,6767,6.654014
5894.450,6768,6.813042
5894.542,6769,6.682357
5894.629,6770,6.755344
5894.710,6771,6.526503
5919.702,6772,6.158250
5919.769,6773,6.107332
5919.818,6774,7.347679
5944.828,6775,10.558751
5944.912,6776,11.556481
5970.714,6777,8.475950
5970.789,6778,6.621342
5970.845,6779,7.102682
5998.717,6780,6.929158
5998.789,6781,7.047653
6006.504,6782,6.988225
6006.566,6783,7.076646
6006.607,6784,6.903699
6031.689,6785,7.025296
6031.758,6786,7.036619
6031.811,6787,7.015631
6031.862,6788,7.119703
6059.501,6789,7.022411
6082.687,6790,7.127131
6082.736,6791,7.127059
6082.771,6792,7.186055
6082.804,6793,7.430042
6100.713,6794,7.325610
6107.680,6795,7.596066
6107.738,6796,7.672804
6108.162,6797,7.754373
6109.710,6798,7.964752
6159.738,6799,7.928259
6160.098,6800,8.116712
6160.210,6801,8.129189
6184.805,6802,8.003049
6184.898,6803,8.162942
6215.713,6804,8.032114
6215.769,6805,7.957612
6215.810,6806,7.680304
6219.640,6807,7.387563
6219.722,6808,7.363979
6245.774,6809,7.146604
6245.822,6810,7.103908
6245.857,6811,6.970844
6271.916,6812,6.856747
6271.980,6813,6.887616
6297.717,6814,6.715101
6297.785,6815,6.780082
6297.836,6816,6.787727
6324.842,6817,6.764576
6325.030,6818,6.862157
6329.661,6819,6.809075
6329.710,6820,6.867277
6329.743,6821,6.852060
6357.641,6822,6.907593
6357.794,6823,6.916248
6357.917,6824,6.807633
6382.685,6825,6.936514
6382.786,6826,6.859921
6382.866,6827,6.825879
6382.944,6828,6.894611
6408.898,6829,6.706013
6409.036,6830,6.891077
6434.681,6831,6.770490
6434.762,6832,6.699450
6434.817,6833,6.815782
6461.686,6834,6.779505
6461.749,6835,6.986134
6486.710,6836,6.988081
6486.773,6837,6.988802
6486.819,6838,7.278371
6512.660,6839,7.118116
6512.706,6840,7.143359
6524.746,6841,6.903338
6524.822,6842,6.722529
6524.866,6843,6.690940
6529.646,6844,6.489937
6529.704,6845,6.554702
6531.609,6846,6.412406
6531.656,6847,6.401372
6557.731,6848,6.461882
6558.625,6849,6.293838
6558.701,6850,6.321389
6582.672,6851,6.382259
6582.719,6852,6.207653
6611.427,6853,6.246454
6611.511,6854,5.785958
6611.588,6855,5.450087
6632.704,6856,6.436639
6632.743,6857,8.748786
6658.837,6858,11.676420
6658.901,6859,9.479595
6658.946,6860,5.900343
6658.988,6861,6.605043
6659.031,6862,6.396539
6683.850,6863,6.572011
6683.975,6864,6.480056
6684.088,6865,6.344468
6710.293,6866,6.487485
6710.417,6867,6.325283
6741.725,6868,6.414498
6741.773,6869,6.407718
6741.807,6870,6.400506
6747.601,6871,6.524050
6747.655,6872,6.420556
6747.698,6873,6.560255
6747.730,6874,6.490874
6774.636,6875,6.559967
6774.680,6876,6.722096
6774.714,6877,6.659423
6799.687,6878,6.781092
6799.789,6879,6.832731
6799.841,6880,6.985412
6825.807,6881,7.144080
6828.729,6882,7.101384
6828.781,6883,7.231347
6828.823,6884,7.210360
6847.341,6885,7.191825
6847.391,6886,7.188795
6847.425,6887,6.903771
6847.457,6888,6.751306
6847.495,6889,6.438875
6873.849,6890,6.227631
6873.897,6891,6.131348
6898.896,6892,5.901929
6898.943,6893,5.925441
6898.974,6894,5.718812
6928.976,6895,5.659745
6929.105,6896,5.647412
6935.329,6897,5.541754
6935.391,6898,5.680011
6935.436,6899,5.548822
6959.771,6900,5.545504
6959.831,6901,5.632988
6959.874,6902,5.477566
6986.919,6903,5.587695
6986.965,6904,5.528628
7011.762,6905,5.430542
7011.841,6906,5.568367
7011.891,6907,5.410637
7037.859,6908,5.617265
7037.906,6909,5.448789
7047.811,6910,5.384312
7047.858,6911,5.436673
7047.889,6912,5.295386
7047.919,6913,5.379192
7074.854,6914,5.279592
7098.715,6915,5.266826
7098.754,6916,5.374576
7098.785,6917,5.346088
7098.815,6918,5.427513
7131.700,6919,5.430903
7131.749,6920,5.599740
7131.782,6921,5.663567
7157.741,6922,5.444390
7157.794,6923,5.465666
7157.833,6924,5.182949
7183.885,6925,5.104985
7183.932,6926,5.037407
7208.897,6927,4.816571
7208.945,6928,4.914656
7208.980,6929,4.791977
7236.770,6930,4.729953
7236.819,6931,4.740050
7246.804,6932,4.622564
7246.842,6933,4.752527
7246.874,6934,4.577343
7272.842,6935,4.445866
7272.976,6936,4.060808
7273.061,6937,3.987172
7298.781,6938,5.591518
7298.854,6939,8.928009
7298.889,6940,9.244767
7298.923,6941,5.834423
7323.809,6942,4.537749
7323.881,6943,4.976969
7343.681,6944,4.625088
7343.718,6945,4.804454
7343.750,6946,4.758441
7346.817,6947,4.648527
7346.850,6948,4.808061
7371.732,6949,4.653864
7371.802,6950,4.568617
7371.843,6951,4.704494
7398.063,6952,4.662735
7398.110,6953,4.691728
7423.748,6954,4.783828
7423.796,6955,4.684588
7423.828,6956,4.798973
7437.723,6957,4.820105
7437.754,6958,4.922229
7462.740,6959,4.970478
7462.814,6960,4.940332
7462.849,6961,5.262138
7488.847,6962,5.215331
7488.895,6963,5.366931
7518.862,6964,5.506342
7518.919,6965,5.430037
7518.955,6966,5.575867
7527.268,6967,5.455496
7527.316,6968,5.446121
7527.349,6969,5.243098
7527.381,6970,4.869941
7558.388,6971,4.790030
7558.520,6972,4.531258
7558.603,6973,4.385860
7577.706,6974,4.357300
7577.763,6975,4.126511
7608.068,6976,4.170938
7608.118,6977,4.001164
7608.154,6978,3.916926
7633.837,6979,3.992293
7633.888,6980,3.851151
7633.925,6981,3.944548
7633.962,6982,3.799944
7659.652,6983,3.941303
7662.587,6984,3.986235
7662.634,6985,3.863484
7686.852,6986,4.010972
7686.899,6987,3.922695
7686.931,6988,3.996909
7714.824,6989,3.992004
7714.882,6990,3.857714
7714.914,6991,3.985585
7714.945,6992,3.797636
7723.780,6993,3.901420
7748.069,6994,3.898607
7772.650,6995,3.851944
7772.722,6996,4.021214
7772.755,6997,4.004770
7772.786,6998,4.074295
7772.818,6999,4.120381
7772.849,7000,4.160480
7798.940,7001,4.317633
7798.988,7002,4.137257
7827.718,7003,4.093479
7827.766,7004,3.967267
7827.799,7005,3.735323
7832.814,7006,3.752921
7832.852,7007,3.625771
7832.885,7008,3.571030
7832.916,7009,3.581416
7859.731,7010,3.537782
7859.792,7011,3.614592
7859.829,7012,3.463713
7884.888,7013,3.458304
7884.935,7014,3.502298
7910.725,7015,3.317306
7910.792,7016,3.146378
7910.842,7017,2.674919
7937.838,7018,3.678636
7937.888,7019,6.230155
7942.748,7020,8.860431
7942.787,7021,6.839583
7942.818,7022,3.181141
7969.736,7023,4.002606
7969.851,7024,3.811556
7969.939,7025,3.803046
7970.025,7026,3.860166
7970.111,7027,3.696450
7994.873,7028,3.749459
7994.924,7029,3.745853
7997.843,7030,3.740300
7997.880,7031,3.793742
7997.912,7032,3.676256
8022.684,7033,3.917935
8022.739,7034,3.956737
8022.779,7035,3.649859
8022.817,7036,4.118650
8040.877,7037,4.089945
8042.745,7038,4.170361
8042.784,7039,4.269600
8049.819,7040,4.298016
8049.868,7041,4.518492
8049.901,7042,4.567319
8074.701,7043,4.546836
8074.751,7044,4.741204
8100.873,7045,4.782241
8100.964,7046,4.814984
8101.036,7047,4.769980
8126.778,7048,4.833519
8126.849,7049,4.613548
8143.842,7050,4.337395
8143.902,7051,4.261090
8171.073,7052,4.034195
8171.211,7053,3.804704
8171.306,7054,3.804200
8171.358,7055,3.415969
8171.406,7056,3.551846
8194.752,7057,3.503380
8194.812,7058,3.547735
8194.852,7059,3.454842
8228.771,7060,3.304469
8228.826,7061,3.380052
8233.223,7062,3.428013
8233.329,7063,3.422388
8238.691,7064,3.498692
8262.834,7065,3.409045
8262.902,7066,3.391736
8287.672,7067,3.324879
8287.728,7068,3.415680
8287.768,7069,3.558048
8314.734,7070,3.457727
8314.815,7071,3.517805
8340.752,7072,3.567785
8340.817,7073,3.465516
8340.861,7074,3.597355
8346.632,7075,3.453977
8346.690,7076,3.581632
8346.742,7077,3.145296
8346.792,7078,3.524368
8373.559,7079,3.483691
8373.635,7080,3.267254
8373.680,7081,3.606298
8398.676,7082,3.575358
8398.745,7083,3.641998
8398.797,7084,3.839539
8398.847,7085,3.805714
8398.897,7086,3.813647
8426.667,7087,3.700417
8426.718,7088,3.269562
8426.753,7089,3.363897
8426.787,7090,3.296103
8434.665,7091,3.209845
8436.562,7092,3.113202
8436.602,7093,3.136137
8461.653,7094,3.274178
8461.702,7095,2.925325
8461.736,7096,3.201046
8488.747,7097,3.088465
8488.818,7098,2.998024
8519.665,7099,3.086229
8519.719,7100,2.335659
8519.757,7101,2.952443
8526.631,7102,4.678963
8526.674,7103,8.068751
8526.708,7104,7.258826
8526.742,7105,3.593749
8553.384,7106,3.115871
8578.717,7107,3.535330
8578.771,7108,3.394116
8606.184,7109,3.192103
8606.250,7110,3.504029
8606.290,7111,3.540523
8606.329,7112,3.447270
8618.804,7113,3.318749
8618.853,7114,3.541965
8618.887,7115,3.569372
8624.817,7116,3.595480
8624.928,7117,3.681521
8625.010,7118,3.486432
8627.921,7119,3.548240
8628.012,7120,3.836438
8653.959,7121,3.618414
8654.090,7122,3.855767
8677.765,7123,4.139565
8677.831,7124,4.131704
8677.876,7125,4.317129
8705.609,7126,4.428196
8705.667,7127,4.457333
8708.641,7128,4.656749
8708.705,7129,4.719351
8708.749,7130,4.771062
8735.826,7131,4.388817
8735.886,7132,4.432812
8735.926,7133,4.209235
8763.039,7134,4.087421
8763.258,7135,4.055471
8786.672,7136,3.832904
8786.722,7137,3.709864
8786.758,7138,3.511097
8786.792,7139,3.587402
8786.826,7140,3.488235
8814.801,7141,3.502875
8815.880,7142,3.473233
8835.455,7143,3.390294
8835.808,7144,3.469483
8835.846,7145,3.391736
8837.933,7146,3.268480
8838.063,7147,3.496745
8863.876,7148,3.604855
8864.395,7149,3.612933
8864.457,7150,3.455059
8889.913,7151,3.611995
8890.200,7152,3.733953
8920.677,7153,3.594109
8920.766,7154,3.728183
8920.808,7155,3.689310
8928.636,7156,3.735251
8928.696,7157,3.767345
8953.736,7158,3.453616
8953.839,7159,3.473450
8957.189,7160,3.762802
8979.676,7161,3.662697
8979.726,7162,3.740516
9009.219,7163,3.651302
9009.304,7164,3.805714
9009.355,7165,3.926734
9027.648,7166,3.814801
9027.725,7167,4.045086
9027.771,7168,4.085258
9027.817,7169,4.164519
9032.748,7170,4.041047
9032.815,7171,3.913897
9032.867,7172,3.891034
9058.447,7173,3.478354
9058.588,7174,3.797781
9081.697,7175,3.525305
9081.746,7176,3.443736
9081.781,7177,3.463713
9110.467,7178,3.349401
9110.539,7179,3.440057
9117.651,7180,3.370893
9117.718,7181,3.322571
9117.777,7182,3.179698
9143.830,7183,2.693094
9143.893,7184,2.535796
9143.937,7185,3.585022
9143.980,7186,6.311869
9169.736,7187,8.710057
9194.682,7188,6.222221
9194.731,7189,3.052764
9196.586,7190,3.566703
9196.623,7191,3.446548
9216.407,7192,3.542759
9222.679,7193,3.448351
9222.746,7194,3.426210
9247.825,7195,3.357911
9247.885,7196,3.440202
9272.674,7197,3.291487
9272.727,7198,3.085940
9272.763,7199,3.458521
9298.748,7200,3.488595
9298.835,7201,3.392601
9298.902,7202,3.376879
9298.945,7203,3.386687
9298.985,7204,3.418060
9315.124,7205,3.452534
9315.178,7206,3.463281
9315.218,7207,3.647768
9315.257,7208,3.523863
9338.264,7209,3.502731
9338.328,7210,3.872499
9338.371,7211,3.938634
9365.599,7212,3.902501
9365.701,7213,3.933081
9365.783,7214,3.882668
9389.760,7215,3.676833
9389.812,7216,3.472945
9412.655,7217,3.191815
9412.709,7218,2.857315
9412.744,7219,2.628617
9437.912,7220,2.365157
9438.032,7221,2.177929
9438.115,7222,2.111793
9464.321,7223,1.997697
9464.455,7224,1.859512
9488.750,7225,1.860954
9488.830,7226,1.747219
9488.888,7227,1.680145
9488.943,7228,1.559414
9511.648,7229,1.426494
9511.700,7230,1.343482
9511.735,7231,1.319682
9514.604,7232,0.795718
9514.657,7233,1.190584
9538.716,7234,0.633228
9538.786,7235,0.654287
9538.839,7236,-1210.075006
9567.057,7237,-1210.353468
9567.124,7238,0.725183
9597.753,7239,-1210.832211
9597.808,7240,-1210.014136
9597.847,7241,-1210.905054
9604.172,7242,-1211.286361
9605.298,7243,0.266273
9629.188,7244,-1211.541816
9629.302,7245,0.181242
9629.392,7246,0.584474
9655.802,7247,0.375609
9655.854,7248,0.322600
9684.702,7249,0.363637
9684.772,7250,0.462588
9690.628,7251,0.523531
9692.671,7252,0.502832
9692.711,7253,0.444486
9717.956,7254,0.448524
9718.064,7255,0.196027
9718.127,7256,0.409507
9718.172,7257,0.331471
9718.217,7258,0.154340
9743.683,7259,0.078396
9743.733,7260,-1210.179871
9743.767,7261,-1210.288198
9743.801,7262,-1210.267715
9769.755,7263,-1210.394145
9769.819,7264,-1210.445063
9769.862,7265,-1210.487182
9802.108,7266,-1210.545889
9802.166,7267,-1210.586349
9802.208,7268,-1210.578488
9829.213,7269,-1210.888250
9829.270,7270,-1211.358844
9829.312,7271,-1211.247776
9829.353,7272,0.227760
9854.228,7273,4.114178
9879.690,7274,4.102855
9879.744,7275,-1210.002741
9879.783,7276,-1210.697921
9879.819,7277,-1210.383759
9900.681,7278,-1210.435326
9900.731,7279,-1210.345679
9908.082,7280,-1210.448813
9908.144,7281,-1210.487903
9908.191,7282,-1210.445784
9908.237,7283,-1210.387005
9933.755,7284,-1210.540984
9933.837,7285,-1210.470089
9959.676,7286,-1210.212975
9959.745,7287,-1210.186362
9983.718,7288,-1210.182035
9983.789,7289,-1210.130684
9983.843,7290,-1210.069093
10014.395,7291,-1210.082074
10014.467,7292,0.010890
10037.719,7293,0.311277
10037.774,7294,0.383038
10037.813,7295,0.551081
10063.724,7296,0.631713
10063.800,7297,-1210.129891
10088.745,7298,0.857093
10088.824,7299,0.973642
10088.884,7300,0.385129
10110.722,7301,1.214745
10110.846,7302,1.178107
10119.123,7303,1.036604
10119.206,7304,0.054885
10119.263,7305,-1210.316470
10144.814,7306,0.424364
10144.963,7307,0.419099
10145.089,7308,0.372725
10145.183,7309,0.320436
10170.672,7310,0.313657
10195.815,7311,0.451986
10195.942,7312,0.428330
10197.575,7313,0.423570
10197.610,7314,0.553173
10222.694,7315,0.574521
10222.760,7316,0.663447
10251.764,7317,-1210.024233
10251.834,7318,0.793482
10251.878,7319,0.849521
10262.207,7320,0.934047
10262.269,7321,1.022901
10283.680,7322,1.197291
10308.698,7323,1.324586
10308.758,7324,1.359421
10308.806,7325,1.496452
10308.845,7326,1.546504
10334.737,7327,1.688223
10334.829,7328,1.726303
10334.903,7329,1.810109
10350.708,7330,1.912233
10350.764,7331,1.952260
10350.804,7332,2.019694
10358.972,7333,2.097585
10359.054,7334,2.232453
10382.812,7335,2.257623
10382.886,7336,2.425450
10410.861,7337,2.570559
10410.954,7338,2.774735
10410.998,7339,2.923522
10441.689,7340,3.100220
10441.748,7341,3.321850
10450.082,7342,3.440779
10450.207,7343,3.404934
10450.291,7344,3.396496
10472.704,7345,3.415825
10472.805,7346,3.299420
10497.840,7347,3.284130
10497.970,7348,3.242516
10498.033,7349,3.451020
10526.695,7350,3.522925
10526.769,7351,3.505039
10534.786,7352,3.566703
10534.841,7353,3.721404
10534.882,7354,3.771384
10559.693,7355,3.867811
10559.801,7356,3.748738
10559.886,7357,3.440851
10559.966,7358,3.392169
10585.867,7359,4.722308
10611.883,7360,7.936769
10611.945,7361,9.514574
10611.987,7362,6.721808
10612.028,7363,4.397688
10639.819,7364,5.003150
10639.885,7365,5.098927
10639.928,7366,5.222904
10645.781,7367,5.147176
10645.851,7368,5.298199
10645.902,7369,5.386909
10671.694,7370,5.461122
10671.776,7371,5.475186
10671.840,7372,5.714918
10671.903,7373,5.799156
10698.345,7374,5.809109
10698.409,7375,5.906834
10698.456,7376,6.063987
10722.821,7377,6.223664
10722.970,7378,6.385865
10754.698,7379,6.470608
10755.033,7380,6.710773
10755.078,7381,6.880980
10760.731,7382,7.089340
10760.817,7383,7.266110
10785.707,7384,7.444034
10785.787,7385,7.641142
10810.863,7386,7.724082
10810.962,7387,7.859238
10811.083,7388,7.858878
10840.690,7389,7.891404
10840.741,7390,7.834717
10844.728,7391,7.647705
10847.740,7392,7.561809
10847.814,7393,7.389798
10872.733,7394,7.311186
10872.810,7395,7.280462
10872.859,7396,7.169106
10898.710,7397,7.202066
10898.775,7398,7.265749
10922.685,7399,7.213100
10922.737,7400,7.324240
10922.771,7401,7.339458
10922.806,7402,7.302964
10922.902,7403,7.451895
10959.280,7404,7.535484
10959.339,7405,7.606235
10959.379,7406,7.694007
10959.419,7407,7.786323
10962.676,7408,7.819643
10987.722,7409,7.872076
10987.792,7410,7.940159
11013.763,7411,8.022521
11013.842,7412,8.069978
11013.884,7413,8.131569
11038.698,7414,8.222154
11038.745,7415,8.254970
11056.361,7416,8.245954
11056.706,7417,8.368850
11058.883,7418,8.421715
11060.596,7419,8.373249
11060.650,7420,8.462247
11084.702,7421,8.524849
11084.767,7422,8.569636
11084.814,7423,8.510569
11111.736,7424,8.587450
11111.841,7425,8.713807
11137.193,7426,8.987653
11137.249,7427,9.025733
11137.291,7428,9.103769
11137.333,7429,9.246426
11137.373,7430,9.404877
11164.710,7431,9.273255
11164.782,7432,9.169688
11191.803,7433,9.106077
11191.916,7434,8.974527
11191.999,7435,8.910627
11216.698,7436,8.931326
11216.750,7437,8.922311
11243.521,7438,8.957506
11243.651,7439,8.935365
11243.727,7440,8.975753
11269.884,7441,8.923609
11269.944,7442,9.071386
11285.240,7443,8.980080
11285.589,7444,8.597691
11285.628,7445,8.356661
11290.974,7446,9.116607
11291.286,7447,11.803570
11316.710,7448,14.564674
11316.763,7449,12.428937
11342.628,7450,8.968469
11342.697,7451,9.583450
11342.733,7452,9.665524
11367.622,7453,9.682257
11367.660,7454,9.673458
11367.693,7455,9.656293
11378.669,7456,9.695527
11378.718,7457,9.689974
11378.752,7458,9.786472
11378.785,7459,9.776087
11405.658,7460,9.722645
11405.715,7461,9.837462
11407.756,7462,9.934322
11429.822,7463,10.025195
11429.958,7464,9.979686
11455.650,7465,10.068107
11457.931,7466,10.170520
11457.997,7467,10.324500
11477.712,7468,10.473791
11477.760,7469,10.481653
11483.673,7470,10.662822
11483.705,7471,10.864114
11508.621,7472,10.976623
11533.747,7473,11.120722
11533.797,7474,11.077810
11533.830,7475,11.158731
11533.863,7476,11.227462
11560.663,7477,11.148778
11575.008,7478,10.992923
11575.109,7479,10.680059
11575.164,7480,10.554928
11575.241,7481,10.464343
11580.909,7482,10.327889
11583.671,7483,10.172684
11583.727,7484,10.073156
11607.800,7485,10.074382
11607.932,7486,10.115275
11632.736,7487,9.995264
11632.785,7488,10.030099
11632.823,7489,9.929417
11662.712,7490,10.148451
11662.767,7491,10.088518
11668.840,7492,10.137705
11669.031,7493,10.111164
11669.248,7494,10.037239
11694.917,7495,10.226198
11694.965,7496,10.240189
11694.997,7497,10.180905
11695.027,7498,10.239540
11720.782,7499,10.095730
11746.883,7500,10.262764
11746.930,7501,10.289737
11746.961,7502,10.301493
11746.991,7503,10.352699
11766.062,7504,10.095081
11772.719,7505,10.226703
11772.766,7506,10.251368
11797.907,7507,10.295002
11797.978,7508,10.290963
11798.011,7509,10.161072
11824.135,7510,10.221510
11824.234,7511,10.248628
11824.311,7512,10.232689
11824.385,7513,10.232617
11853.018,7514,10.242137
11853.073,7515,10.512016
11853.112,7516,10.440399
11856.441,7517,10.517425
11856.497,7518,10.719726
11861.737,7519,10.692825
11861.794,7520,10.740641
11887.010,7521,10.618540
11911.784,7522,10.435855
11911.836,7523,10.322048
11911.870,7524,10.181482
11911.904,7525,10.172972
11939.028,7526,10.110154
11946.881,7527,10.009977
11946.927,7528,10.093278
11946.959,7529,9.994976
11946.990,7530,9.971104
11972.796,7531,9.932519
11972.848,7532,9.827942
11972.883,7533,9.702955
11998.857,7534,9.229693
11999.033,7535,9.635161
11999.176,7536,11.561674
12024.838,7537,14.969854
12024.886,7538,13.998664
12024.919,7539,10.105899
12024.951,7540,10.141888
12042.813,7541,10.184367
12042.852,7542,10.115780
12042.884,7543,10.204850
12050.268,7544,10.109577
12050.444,7545,10.087003
12052.368,7546,10.090609
12052.635,7547,10.106981
12052.674,7548,10.149749
12076.686,7549,10.164245
12076.737,7550,10.134243
12101.757,7551,10.116573
12101.804,7552,10.163741
12102.028,7553,10.222592
12127.759,7554,10.257210
12127.801,7555,10.274952
12146.914,7556,10.385226
12146.960,7557,10.441265
12146.991,7558,10.545697
12151.896,7559,10.693041
12151.943,7560,10.738261
12153.974,7561,10.910416
12154.018,7562,10.907531
12179.236,7563,11.015136
12210.236,7564,11.008573
12210.308,7565,11.008718
12210.371,7566,10.917700
12210.430,7567,10.742805
12235.711,7568,10.503145
12240.593,7569,10.331207
12240.630,7570,10.111308
12242.587,7571,9.955742
12242.621,7572,9.835803
12269.771,7573,9.801401
12269.884,7574,9.586840
12269.963,7575,9.560010
12292.855,7576,9.585758
12292.900,7577,9.484643
12318.612,7578,9.499068
12318.673,7579,9.491928
12318.714,7580,9.438269
12346.916,7581,9.426008
12346.962,7582,9.456732
12371.743,7583,9.546235
12371.821,7584,9.497265
12371.863,7585,9.491783
12397.958,7586,9.453992
12398.006,7587,9.482119
12423.730,7588,9.493009
12423.786,7589,9.468055
12423.824,7590,9.440577
12447.361,7591,9.455939
12447.399,7592,9.517747
12458.242,7593,9.492432
12458.311,7594,9.473753
12458.364,7595,9.431418
12483.749,7596,9.388794
12483.796,7597,9.460410
12483.830,7598,9.433725
12483.862,7599,9.406752
12509.871,7600,9.385909
12509.947,7601,9.421393
12509.985,7602,9.440793
12534.794,7603,9.629824
12534.845,7604,9.642518
12563.957,7605,9.580565
12564.038,7606,9.868979
12564.096,7607,9.900424
12566.629,7608,9.843088
12566.679,7609,9.717236
12570.778,7610,9.583883
12570.850,7611,9.434663
12596.232,7612,9.267341
12596.305,7613,9.271308
12596.350,7614,9.263086
12622.728,7615,9.230775
12622.783,7616,9.201277
12645.797,7617,9.076507
12647.834,7618,9.180939
12647.873,7619,9.142354
12674.768,7620,9.169760
12679.658,7621,8.932552
12679.702,7622,8.492971
12681.671,7623,8.482585
12681.703,7624,9.985312
12708.063,7625,13.336587
12708.144,7626,13.772058
12708.210,7627,10.303224
12732.770,7628,9.087758
12732.818,7629,9.385188
12758.667,7630,9.317682
12758.749,7631,9.452838
12758.792,7632,9.325904
12758.829,7633,9.347756
12758.865,7634,9.092085
12778.765,7635,9.349776
12778.822,7636,9.357781
12782.147,7637,9.321937
12782.181,7638,9.383745
12782.213,7639,9.363767
12785.670,7640,9.409493
12785.714,7641,9.323740
12812.781,7642,9.402208
12812.847,7643,9.571478
12835.765,7644,9.590590
12838.503,7645,9.660981
12838.569,7646,9.749330
12867.812,7647,9.755748
12867.973,7648,9.990937
12873.564,7649,10.052096
12873.616,7650,10.043370
12873.665,7651,10.164967
12899.998,7652,10.160207
12900.161,7653,10.112462
12900.290,7654,10.103375
12924.961,7655,9.973556
12925.069,7656,9.865301
12925.137,7657,9.586840
12925.183,7658,9.405021
12952.761,7659,9.207263
12952.875,7660,9.032729
12952.933,7661,9.010444
12977.050,7662,8.925845
12977.112,7663,8.812037
12984.702,7664,8.829563
12984.758,7665,8.758451
12984.810,7666,8.694262
13010.655,7667,8.705730
13010.756,7668,8.781241
13035.737,7669,8.803815
13035.795,7670,8.754412
13037.575,7671,8.775399
13063.700,7672,8.712365
13063.749,7673,8.731117
13078.759,7674,8.622790
13078.820,7675,8.735300
13078.860,7676,8.708542
13086.901,7677,8.752392
13109.651,7678,8.717053
13109.720,7679,8.700609
13109.755,7680,8.620121
13135.939,7681,8.553697
13161.498,7682,8.512083
13161.571,7683,8.633464
13161.615,7684,8.646734
13161.659,7685,8.507828
13179.789,7686,8.587739
13185.735,7687,8.509992
13185.803,7688,8.457703
13185.854,7689,8.398203
13185.903,7690,8.402386
13211.681,7691,8.431307
13211.738,7692,8.391568
13211.781,7693,8.613558
13235.735,7694,8.692676
13235.805,7695,8.595528
13261.697,7696,8.822134
13261.771,7697,8.826533
13261.826,7698,8.841823
13291.710,7699,8.796531
13291.772,7700,8.567328
13298.622,7701,8.443063
13298.664,7702,8.257926
13323.697,7703,8.223741
13348.908,7704,8.188762
13349.083,7705,8.153927
13349.223,7706,8.137700
13349.359,7707,8.059736
13374.988,7708,8.076613
13389.642,7709,8.068896
13389.699,7710,8.010333
13389.745,7711,7.789929
13389.789,7712,7.323663
13395.606,7713,7.520194
13398.606,7714,9.222698
13398.714,7715,12.663043
13422.743,7716,12.441558
13422.815,7717,8.655389
13448.738,7718,7.935831
13448.857,7719,8.135320
13448.947,7720,8.187319
13475.792,7721,8.286992
13475.847,7722,8.180468
13483.743,7723,8.237300
13483.844,7724,8.184507
13483.925,7725,8.141594
13510.748,7726,8.190349
13510.980,7727,8.152268
13511.041,7728,8.230953
13511.091,7729,8.221361
13535.697,7730,8.228357
13560.707,7731,8.356517
13560.781,7732,8.313244
13562.658,7733,8.393299
13562.718,7734,8.462824
13616.684,7735,8.520016
13616.768,7736,8.582041
13616.828,7737,8.726645
13640.699,7738,8.886683
13640.767,7739,8.903992
13665.821,7740,8.981451
13667.638,7741,9.084873
13667.677,7742,9.029700
13686.674,7743,9.070232
13686.724,7744,8.943298
13692.587,7745,8.831510
13692.639,7746,8.654307
13692.687,7747,8.416810
13692.727,7748,8.235352
13692.767,7749,8.014588
13718.745,7750,7.949462
13718.817,7751,7.824476
13718.872,7752,7.774423
13744.687,7753,7.721269
13744.748,7754,7.755094
13769.715,7755,7.680809
13769.767,7756,7.646479
13769.803,7757,7.761008
13789.755,7758,7.684992
13789.848,7759,7.731366
13794.755,7760,7.629242
13794.845,7761,7.692060
13815.813,7762,7.665808
13834.762,7763,7.693431
13834.827,7764,7.660255
13834.879,7765,7.756104
13834.930,7766,7.695666
13843.894,7767,7.690618
13858.398,7768,7.636094
13858.460,7769,7.673597
13862.699,7770,7.615972
13862.756,7771,7.666601
13862.797,7772,7.611500
13880.809,7773,7.573204
13880.862,7774,7.643739
13880.901,7775,7.588998
13880.938,7776,7.535701
13887.736,7777,7.495312
13887.791,7778,7.620011
13887.838,7779,7.754662
13903.963,7780,7.735910
13904.056,7781,7.799882
13908.975,7782,8.038893
13909.030,7783,8.057284
13909.069,7784,8.009251
13928.843,7785,7.908569
13928.891,7786,7.707206
13928.926,7787,7.577531
13928.958,7788,7.446125
13950.907,7789,7.355901
13950.958,7790,7.323663
13950.991,7791,7.258753
13971.713,7792,7.302315
13971.774,7793,7.232645
13971.816,7794,7.283996
13993.741,7795,7.173578
13993.815,7796,7.242742
13993.856,7797,6.969690
13993.895,7798,6.532561
14018.700,7799,6.614707
14018.777,7800,8.225183
14018.838,7801,11.741473
14038.992,7802,11.763254
14039.107,7803,8.015309
14063.701,7804,7.132180
14063.764,7805,7.447712
14063.813,7806,7.442808
14087.250,7807,7.495745
14087.323,7808,7.438481
14087.372,7809,7.434514
14087.418,7810,7.408766
14107.655,7811,7.456944
14130.733,7812,7.453554
14130.799,7813,7.459973
14130.845,7814,7.456727
14130.890,7815,7.504472
14150.769,7816,7.570319
14158.251,7817,7.644460
14158.326,7818,7.622607
14172.884,7819,7.668260
14173.041,7820,7.727328
14178.987,7821,7.809907
14195.360,7822,7.990788
14195.446,7823,8.039109
14219.693,7824,8.199364
14219.758,7825,8.241411
14219.803,7826,8.338342
14240.899,7827,8.355219
14240.952,7828,8.380389
14264.713,7829,8.424672
14264.792,7830,8.285549
14273.118,7831,8.128324
14273.181,7832,7.913474
14273.226,7833,7.727616
14288.684,7834,7.541831
14288.740,7835,7.335347
14311.687,7836,7.304046
14311.736,7837,7.214615
14311.771,7838,7.170260
14336.502,7839,7.116962
14336.565,7840,7.031138
14344.740,7841,7.046644
14344.790,7842,7.033229
14354.211,7843,7.040730
14367.682,7844,7.081262
14367.737,7845,7.067126
14392.734,7846,7.046572
14392.796,7847,7.093883
14392.837,7848,7.101889
14431.689,7849,7.076863
14431.750,7850,7.060130
14431.785,7851,7.045418
14431.819,7852,7.008852
14433.585,7853,7.073184
14447.696,7854,7.077007
14447.752,7855,6.987216
14470.793,7856,7.020752
14470.860,7857,7.026450
14470.910,7858,6.970267
14496.996,7859,6.987937
14497.063,7860,6.926273
14503.742,7861,6.965218
14503.882,7862,7.184901
14528.114,7863,7.209134
14528.640,7864,7.237189
14531.129,7865,7.407540
14554.223,7866,7.434730
14554.460,7867,7.430836
14561.357,7868,7.340972
14561.414,7869,7.192690
14567.891,7870,7.046355
14591.775,7871,6.853069
14591.887,7872,6.823716
14598.740,7873,6.762629
14598.804,7874,6.779433
14611.701,7875,6.683295
14624.683,7876,6.645071
14624.725,7877,6.721159
14639.766,7878,6.669303
14639.846,7879,6.726496
14647.598,7880,6.506885
14677.742,7881,6.069973
14677.802,7882,5.986744
14677.842,7883,7.290198
14677.880,7884,10.611544
14704.479,7885,11.623554
14704.580,7886,8.232756
14704.634,7887,6.475152
14717.705,7888,7.004669
14717.774,7889,6.983970
14742.724,7890,7.033590
14742.789,7891,6.936153
14742.837,7892,6.950217
14758.661,7893,6.860858
14758.717,7894,6.996952
14782.219,7895,6.964497
14782.353,7896,6.963415
14782.430,7897,7.012025
14808.259,7898,6.993202
14808.335,7899,7.013107
14814.845,7900,7.090349
14814.985,7901,7.135642
14824.793,7902,7.162038
14837.698,7903,7.238559
14837.764,7904,7.422181
14860.801,7905,7.416772
14863.806,7906,7.565126
14863.926,7907,7.651167
14886.754,7908,7.702518
14886.862,7909,7.830894
14893.794,7910,7.872076
14893.854,7911,7.891044
14907.923,7912,7.890323
14920.068,7913,7.725020
14920.130,7914,7.651167
14933.738,7915,7.474830
14933.832,7916,7.257672
14958.742,7917,7.112707
14958.790,7918,6.843910
14958.833,7919,6.880548
14972.820,7920,6.729236
14972.886,7921,6.664111
14989.918,7922,6.712648
14990.081,7923,6.568261
14998.845,7924,6.542081
15012.737,7925,6.596533
15012.811,7926,6.550735
15036.812,7927,6.587590
15036.912,7928,6.537970
15036.985,7929,6.624732
15060.745,7930,6.564583
15060.849,7931,6.585498
15069.178,7932,6.566025
15069.314,7933,6.541648
15081.834,7934,6.620693
15094.753,7935,6.517776
15094.853,7936,6.504217
15110.431,7937,6.553909
15110.505,7938,6.481787
15118.802,7939,6.481499
15140.954,7940,6.425027
15141.010,7941,6.416517
15147.820,7942,6.408439
15147.975,7943,6.357594
15160.647,7944,6.374326
15175.062,7945,6.282082
15175.128,7946,6.411324
15188.699,7947,6.626463
15188.762,7948,6.544533
15202.761,7949,6.562059
15203.065,7950,6.733131
15215.646,7951,6.750440
15229.762,7952,6.765153
15229.830,7953,6.510419
15244.689,7954,6.381177
15244.742,7955,6.290376
15253.187,7956,6.118871
15276.703,7957,6.061390
15276.770,7958,5.900703
15282.733,7959,5.914262
15282.905,7960,5.922123
15297.041,7961,5.823461
15323.741,7962,5.807017
15323.817,7963,5.758912
15323.853,7964,5.756532
15323.887,7965,5.629382
15333.692,7966,5.095105
15348.948,7967,4.886457
15349.023,7968,6.015665
15371.747,7969,8.921157
15371.818,7970,10.746051
15371.868,7971,7.675472
15389.816,7972,5.193190
15389.973,7973,5.826057
15403.046,7974,5.649936
15403.121,7975,5.645248
15427.728,7976,5.656283
15427.778,7977,5.617482
15427.813,7978,5.583224
15442.769,7979,5.531585
15442.852,7980,5.563535
15466.790,7981,5.463790
15467.197,7982,5.486725
15467.705,7983,5.496173
15491.719,7984,5.478647
15492.003,7985,5.498553
15497.964,7986,5.488312
15498.059,7987,5.501654
15513.631,7988,5.476772
15525.756,7989,5.561587
15525.900,7990,5.642436
15540.455,7991,5.685060
15540.568,7992,5.748382
15547.713,7993,5.800094
15571.680,7994,5.806729
15571.725,7995,5.810335
15578.868,7996,5.836299
15578.955,7997,5.826202
15590.950,7998,5.717082
15608.292,7999,5.523435
15608.357,8000,5.402198
15618.718,8001,5.102028
15618.777,8002,4.873691
15642.908,8003,4.665837
15642.958,8004,4.506015
15642.993,8005,4.406992
15659.616,8006,4.253662
15659.761,8007,4.264047
15683.939,8008,4.120886
15683.989,8009,4.088142
15684.023,8010,4.052226
15697.995,8011,4.027200
15698.177,8012,4.025324
15720.853,8013,4.019699
15720.904,8014,3.986090
15722.732,8015,3.988326
15746.830,8016,3.899833
15746.884,8017,3.919161
15753.755,8018,3.817758
15766.689,8019,3.832039
15766.775,8020,3.768355
15780.733,8021,3.702652
15780.818,8022,3.682458
15793.893,8023,3.658442
15794.067,8024,3.655413
15807.432,8025,3.573627
15826.850,8026,3.521411
15826.917,8027,3.581055
15833.789,8028,3.445178
15833.881,8029,3.430682
15857.999,8030,3.409622
15858.101,8031,3.364762
15858.185,8032,3.494437
15872.752,8033,3.519896
15872.834,8034,3.586969
15898.793,8035,3.659740
15898.851,8036,3.708855
15898.892,8037,3.714552
15914.018,8038,3.654836
15915.245,8039,3.504823
15935.787,8040,3.283265
15935.897,8041,3.098778
15937.654,8042,3.051610
15959.503,8043,2.940615
15959.582,8044,2.893015
15971.840,8045,2.892005
15971.904,8046,2.819451
15977.623,8047,2.793992
16003.407,8048,2.814114
16003.523,8049,2.745093
16010.562,8050,2.637704
16010.655,8051,2.205479
16020.994,8052,1.921248
16036.218,8053,2.885082
16036.392,8054,3.856560
16049.821,8055,7.382226
16049.890,8056,6.978489
16074.398,8057,3.160298
16074.565,8058,2.640950
16074.659,8059,2.900948
16087.783,8060,2.961747
16087.947,8061,2.959439
16112.708,8062,2.870369
16112.779,8063,2.831567
16112.833,8064,2.898857
16127.712,8065,2.917464
16127.747,8066,2.861137
16152.336,8067,2.889048
16152.403,8068,2.949919
16154.124,8069,2.914724
16168.731,8070,3.031921
16168.788,8071,2.972421
16191.724,8072,3.095749
16191.773,8073,3.106134
16191.810,8074,3.190877
16216.647,8075,3.318100
16223.584,8076,3.355387
16223.630,8077,3.509438
16223.665,8078,3.605937
16235.762,8079,3.686209
16249.703,8080,3.812782
16249.752,8081,3.760927
16263.647,8082,3.795040
16263.687,8083,3.796843
16272.613,8084,3.743329
16289.842,8085,3.667962
16289.881,8086,3.387048
16308.379,8087,3.289395
16308.434,8088,3.160658
16327.808,8089,3.002279
16327.856,8090,2.929436
16327.889,8091,2.767379
16342.848,8092,2.785265
16342.885,8093,2.755840
16368.080,8094,2.747978
16368.166,8095,2.779279
16368.261,8096,2.768172
16382.772,8097,2.847650
16382.816,8098,2.899362
16407.083,8099,2.896477
16407.145,8100,2.954390
16407.191,8101,2.925902
16431.837,8102,3.010213
16431.886,8103,2.993048
16437.892,8104,3.014179
16437.932,8105,3.013819
16450.760,8106,3.091494
16464.848,8107,3.089835
16464.900,8108,3.088681
16478.877,8109,3.093369
16478.925,8110,3.152581
16487.959,8111,3.074617
16510.663,8112,3.134622
16510.711,8113,3.172126
16518.161,8114,3.169096
16518.287,8115,3.162029
16530.930,8116,3.175804
16544.802,8117,3.318749
16544.869,8118,3.471430
16559.671,8119,3.491047
16559.736,8120,3.663851
16573.726,8121,3.779245
16573.814,8122,3.824033
16585.644,8123,3.878341
16599.823,8124,3.700633
16599.863,8125,3.638392
16613.719,8126,3.521699
16613.787,8127,3.480157
16622.859,8128,3.373561
16645.917,8129,3.393755
16645.959,8130,3.464507
16653.214,8131,3.353584
16653.333,8132,3.454698
16679.858,8133,3.532662
16679.917,8134,3.459891
16679.950,8135,3.585383
16694.040,8136,3.207321
16694.086,8137,2.884288
16705.192,8138,3.446260
16718.375,8139,5.491918
16718.501,8140,8.918128
16742.012,8141,7.458963
16742.058,8142,3.709287
16742.089,8143,4.058645
16767.029,8144,4.106173
16767.098,8145,4.175193
16772.882,8146,4.234549
16772.970,8147,4.195315
16798.075,8148,4.209235
16798.240,8149,4.283736
16798.379,8150,4.446875
16812.853,8151,4.385644
16812.942,8152,4.427042
16838.002,8153,4.473849
16838.051,8154,4.616722
16838.084,8155,4.681631
16852.953,8156,4.694830
16854.943,8157,4.733703
16876.816,8158,4.840155
16876.873,8159,4.908165
16876.913,8160,5.094311
16901.973,8161,5.177612
16902.018,8162,5.312912
16908.028,8163,5.499130
16908.076,8164,5.582863
16920.697,8165,5.725376
16935.786,8166,5.695878
16935.826,8167,5.819422
16948.710,8168,5.823894
16948.748,8169,5.790573
16958.631,8170,5.711528
16980.787,8171,5.603706
16980.834,8172,5.382654
16987.658,8173,5.215476
16987.692,8174,5.061640
17012.697,8175,5.062145
17012.746,8176,4.941269
17012.780,8177,4.907084
17027.812,8178,4.930307
17027.862,8179,4.907444
17053.186,8180,4.932254
17053.432,8181,4.996154
17053.470,8182,4.974445
17068.888,8183,5.068997
17068.970,8184,4.990240
17091.721,8185,5.144941
17091.771,8186,5.159726
17091.806,8187,5.171914
17115.659,8188,5.250527
17115.724,8189,5.202566
17133.625,8190,5.293295
17133.685,8191,5.340823
17133.722,8192,5.330510
17148.805,8193,5.345367
17148.851,8194,5.350632
17162.729,8195,5.448428
17162.822,8196,5.383375
17174.592,8197,5.373494
17188.647,8198,5.457660
17188.682,8199,5.455136
17203.146,8200,5.537066
17203.447,8201,5.477638
17216.699,8202,5.531801
17239.182,8203,5.763311
17239.245,8204,5.822595
17243.672,8205,5.852382
17243.707,8206,6.050139
17258.659,8207,6.109712
17258.791,8208,6.177722
17270.661,8209,6.154283
17285.333,8210,6.009751
17285.392,8211,5.791295
17298.909,8212,5.725664
17299.076,8213,5.701071
17307.954,8214,5.698186
17331.889,8215,5.717514
17331.932,8216,5.626064
17339.895,8217,5.687728
17339.933,8218,5.733597
17349.005,8219,5.763311
17362.720,8220,5.755883
17362.792,8221,5.663279
17385.842,8222,5.261489
17385.893,8223,5.080320
17387.761,8224,6.294055
17410.691,8225,9.481686
17410.760,8226,11.024007
17418.973,8227,7.943043
17419.086,8228,5.730857
17431.781,8229,6.327807
17444.760,8230,6.268668
17444.799,8231,6.387164
17458.834,8232,6.341078
17458.936,8233,6.341871
17482.708,8234,6.328961
17482.764,8235,6.441255
17482.798,8236,6.452794
17497.769,8237,6.451280
17497.801,8238,6.545038
17520.768,8239,6.555568
17520.861,8240,6.691661
17522.740,8241,6.723034
17545.702,8242,6.777053
17545.778,8243,6.844559
17558.216,8244,6.886462
17558.310,8245,7.034239
17565.292,8246,7.177112
17596.926,8247,7.287818
17597.017,8248,7.463939
17597.076,8249,7.534763
17597.170,8250,7.657947
17602.848,8251,7.679367
17625.738,8252,7.690618
17625.807,8253,7.796925
17633.193,8254,7.742185
17633.244,8255,7.676698
17645.829,8256,7.536782
17659.781,8257,7.348905
17659.971,8258,7.153095
17674.912,8259,6.973729
17675.040,8260,6.881629
17697.714,8261,6.843838
17697.765,8262,6.764792
17697.801,8263,6.688560
17712.739,8264,6.726640
17712.808,8265,6.716182
17738.138,8266,6.725198
17738.206,8267,6.658197
17738.282,8268,6.776837
17752.769,8269,6.811671
17752.838,8270,6.812465
17775.707,8271,6.823355
17775.767,8272,6.842467
17777.646,8273,6.849463
17800.705,8274,6.924758
17800.775,8275,6.847660
17810.317,8276,6.950073
17813.265,8277,6.910262
17820.749,8278,6.978056
17834.692,8279,6.962334
17834.758,8280,6.950433
17848.656,8281,6.999981
17848.709,8282,6.954040
17858.186,8283,6.986711
17882.840,8284,6.967166
17882.911,8285,6.956708
17887.691,8286,6.950433
17887.755,8287,6.997385
17900.807,8288,6.990533
17914.685,8289,7.030993
17914.737,8290,7.143287
17928.758,8291,7.289477
17928.805,8292,7.237478
17942.765,8293,7.434947
17942.814,8294,7.532239
17958.785,8295,7.561087
17971.060,8296,7.459107
17971.266,8297,7.256301
17983.751,8298,7.207114
17983.802,8299,7.061284
17992.900,8300,6.970483
18015.708,8301,6.907305
18015.760,8302,6.948270
18023.591,8303,6.952525
18033.682,8304,6.864176
18033.737,8305,6.810950
18060.969,8306,6.884082
18061.040,8307,6.879538
18062.668,8308,6.788088
18062.741,8309,6.392068
18075.682,8310,6.012852
18089.801,8311,7.209855
18089.873,8312,10.030460
18105.870,8313,12.214158
18105.921,8314,9.479811
18112.600,8315,6.615573
18136.692,8316,7.261350
18136.762,8317,7.138887
18143.655,8318,7.289838
18143.693,8319,7.206610
18168.778,8320,7.202354
18168.900,8321,7.210720
18168.995,8322,7.166654
18183.670,8323,7.251036
18183.709,8324,7.266326
18207.751,8325,7.304767
18207.807,8326,7.218365
18207.847,8327,7.363763
18231.447,8328,7.459612
18231.523,8329,7.416988
18237.678,8330,7.513631
18237.730,8331,7.589071
18250.669,8332,7.659389
18265.751,8333,7.831832
18265.805,8334,7.882461
18278.741,8335,8.024757
18278.822,8336,8.104235
18288.599,8337,8.112674
18310.676,8338,8.277471
18310.728,8339,8.297449
18317.645,8340,8.228573
18317.680,8341,8.249128
18330.616,8342,8.114116
18344.814,8343,7.956170
18344.894,8344,7.748315
18358.832,8345,7.517309
18358.896,8346,7.421893
18383.982,8347,7.182521
18384.034,8348,7.233367
18384.069,8349,7.020175
18397.838,8350,7.098499
18397.920,8351,7.024719
18423.692,8352,6.972863
18423.741,8353,7.026450
18423.775,8354,7.005823
18437.812,8355,7.002000
18437.852,8356,6.991615
18463.846,8357,7.071670
18463.958,8358,7.029767
18464.008,8359,7.064097
18481.718,8360,7.063592
18496.009,8361,7.074483
18496.140,8362,7.048735
18496.222,8363,7.099365
18504.274,8364,7.077728
18517.712,8365,6.997673
18517.778,8366,7.072319
18540.792,8367,7.068352
18540.860,8368,6.997457
18542.900,8369,7.046932
18566.211,8370,6.994788
18566.287,8371,6.971854
18572.742,8372,6.954112
18572.821,8373,6.949568
18585.697,8374,6.958439
18600.075,8375,6.851122
18600.209,8376,6.944664
18613.743,8377,7.006184
18613.806,8378,7.175237
18629.576,8379,7.148407
18629.694,8380,7.247719
18641.470,8381,7.467690
18658.830,8382,7.345804
18659.304,8383,7.342415
18668.670,8384,7.164563
18668.721,8385,7.004741
18678.676,8386,6.873408
18701.081,8387,6.787655
18701.151,8388,6.775322
18709.190,8389,6.694041
18709.248,8390,6.630358
18720.767,8391,6.708826
18734.699,8392,6.632666
18734.765,8393,6.631512
18749.035,8394,6.554269
18749.126,8395,6.487990
18759.322,8396,6.205778
18780.681,8397,5.747589
18780.737,8398,6.391996
18788.557,8399,8.643994
18788.594,8400,11.873744
18802.089,8401,10.113472
18814.705,8402,6.265566
18814.762,8403,6.782534
18828.713,8404,6.706158
18828.786,8405,6.739766
18857.861,8406,6.775827
18857.944,8407,6.689065
18858.016,8408,6.649831
18868.840,8409,6.582108
18868.932,8410,6.628338
18890.842,8411,6.678391
18890.965,8412,6.592133
18892.631,8413,6.640022
18907.907,8414,6.634036
18907.962,8415,6.629492
18930.866,8416,6.672982
18930.932,8417,6.715245
18959.161,8418,6.783256
18959.260,8419,6.819533
18959.327,8420,6.835760
18962.701,8421,6.961901
18962.758,8422,7.024863
18975.883,8423,7.190238
18989.937,8424,7.116457
18990.088,8425,7.176535
19008.148,8426,7.253561
19008.245,8427,7.159514
19013.681,8428,7.160668
19035.750,8429,6.984908
19035.834,8430,6.749791
19043.624,8431,6.603889
19043.678,8432,6.308623
19058.719,8433,6.113967
19070.719,8434,5.978883
19070.778,8435,5.748815
19083.726,8436,5.776365
19083.775,8437,5.643950
19097.853,8438,5.547235
19097.973,8439,5.572766
19110.694,8440,5.464656
19125.690,8441,5.445688
19125.741,8442,5.387918
19139.741,8443,5.378615
19139.797,8444,5.333178
19148.658,8445,5.352074
19170.655,8446,5.363181
19170.705,8447,5.259903
19177.667,8448,5.189945
19177.723,8449,5.262643
19191.865,8450,5.228025
19205.704,8451,5.121717
19205.776,8452,5.083493
19219.713,8453,5.122294
19219.773,8454,5.037984
19228.499,8455,4.990312
19251.703,8456,4.922013
19251.757,8457,4.894246
19258.172,8458,4.837558
19258.234,8459,4.812965
19270.691,8460,4.741204
19284.712,8461,4.699878
19284.775,8462,4.618597
19297.666,8463,4.605182
19297.711,8464,4.613476
19322.739,8465,4.502481
19322.799,8466,4.657182
19322.841,8467,4.681343
19337.668,8468,4.650980
19337.721,8469,4.770341
19360.746,8470,4.864820
19360.825,8471,4.812676
19362.597,8472,4.729376
19385.734,8473,4.500750
19392.592,8474,4.300901
19392.658,8475,4.133723
19392.692,8476,4.058500
19411.306,8477,3.979960
19420.661,8478,3.886130
19420.711,8479,3.923849
19434.772,8480,3.807589
19434.847,8481,3.772538
19443.016,8482,3.710802
19465.678,8483,3.652672
19465.729,8484,3.576800
19472.611,8485,3.064664
19472.649,8486,2.840655
19486.697,8487,4.001957
19499.622,8488,6.931754
19499.663,8489,8.726717
19514.362,8490,5.786751
19514.529,8491,3.202994
19537.934,8492,3.801964
19538.068,8493,3.622814
19538.102,8494,3.720683
19554.075,8495,3.587546
19554.180,8496,3.520473
19577.801,8497,3.481888
19577.900,8498,3.522348
19577.970,8499,3.418998
19603.721,8500,3.344208
19604.245,8501,3.424984
19627.739,8502,3.436307
19627.809,8503,3.391736
19627.855,8504,3.459025
19657.145,8505,3.441716
19658.750,8506,3.483186
19678.701,8507,3.516506
19678.762,8508,3.525017
19678.804,8509,3.724000
19708.683,8510,3.728255
19708.735,8511,3.828000
19732.860,8512,3.957386
19732.963,8513,3.988542
19733.029,8514,4.087710
19759.813,8515,4.019410
19759.878,8516,4.056625
19759.927,8517,4.007150
19759.973,8518,3.772682
19784.687,8519,3.690464
19784.755,8520,3.381855
19784.807,8521,3.221529
19815.733,8522,3.022113
19815.815,8523,2.838058
19842.732,8524,2.790458
19842.782,8525,2.656384
19842.817,8526,2.656672
19865.701,8527,2.592484
19865.768,8528,2.550509
19892.830,8529,2.549860
19892.912,8530,2.556640
19922.908,8531,2.552240
19923.022,8532,2.515819
19923.067,8533,2.578709
19927.705,8534,2.546903
19927.773,8535,2.528801
19927.825,8536,2.592268
19954.758,8537,2.586354
19954.833,8538,2.542432
19980.747,8539,2.583252
19980.857,8540,2.634531
19980.936,8541,2.559524
20008.248,8542,2.546110
20008.319,8543,2.510265
20008.360,8544,2.567602
20008.401,8545,2.510265
20033.668,8546,2.526493
20033.719,8547,2.545100
20033.754,8548,2.511996
20060.720,8549,2.465694
20060.798,8550,2.490504
20060.858,8551,2.476080
20060.917,8552,2.516252
20060.974,8553,2.650542
20086.917,8554,2.735285
20087.138,8555,2.716317
20117.934,8556,2.808705
20118.061,8557,3.009563
20118.149,8558,2.967156
20127.880,8559,2.964127
20127.943,8560,2.808921
20153.551,8561,2.664894
20153.629,8562,2.597893
20153.663,8563,2.470238
20178.718,8564,2.431869
20178.797,8565,2.362055
20178.855,8566,2.321523
20178.913,8567,2.427470
20205.442,8568,2.421700
20205.679,8569,2.342294
20205.774,8570,2.377922
20235.718,8571,2.359675
20235.787,8572,2.116986
20237.964,8573,1.658004
20262.689,8574,2.318710
20262.763,8575,4.432307
20262.817,8576,7.727039
20262.869,8577,6.173251
20288.803,8578,2.349290
20288.849,8579,2.863301
20313.926,8580,2.738170
20314.004,8581,2.789304
20314.050,8582,2.830630
20338.699,8583,2.818513
20338.751,8584,2.872893
20338.784,8585,2.787717
20340.632,8586,2.861065
20340.685,8587,2.919916
20366.705,8588,2.929436
20366.779,8589,2.992903
20366.835,8590,2.988143
20393.747,8591,3.061780
20393.821,8592,3.162173
20417.679,8593,3.192680
20417.759,8594,3.306128
20417.813,8595,3.354810
20438.716,8596,3.564395
20438.798,8597,3.701570
20438.865,8598,3.824394
20438.934,8599,3.949885
20464.673,8600,4.039460
20464.724,8601,4.103432
20464.758,8602,4.199715
20490.718,8603,4.138411
20490.772,8604,4.297439
20515.730,8605,4.071266
20517.606,8606,3.898246
20517.667,8607,3.733160
20547.718,8608,3.536773
20547.786,8609,3.387914
20552.685,8610,3.182583
20552.994,8611,3.123660
20553.068,8612,3.135055
20554.955,8613,3.087238
20555.001,8614,3.035022
20579.704,8615,3.092936
20579.774,8616,3.057308
20579.826,8617,3.076276
20608.085,8618,2.976460
20608.136,8619,3.101663
20608.174,8620,3.116664
20608.213,8621,3.150633
20637.696,8622,3.197368
20637.752,8623,3.212514
20637.792,8624,3.288458
20643.632,8625,3.253695
20643.668,8626,3.308363
20669.706,8627,3.325673
20692.128,8628,3.327259
20692.173,8629,3.349905
20694.696,8630,3.410343
20694.772,8631,3.302666
20720.682,8632,3.363320
20746.846,8633,3.350915
20746.897,8634,3.441284
20746.931,8635,3.460324
20746.964,8636,3.592450
20753.162,8637,3.649282
20753.336,8638,3.649715
20753.386,8639,3.938057
20755.869,8640,3.934307
20755.915,8641,3.900410
20779.942,8642,3.796266
20780.049,8643,3.624112
20805.408,8644,3.529777
20831.784,8645,3.448063
20831.837,8646,3.520617
20831.869,8647,3.450948
20831.901,8648,3.390726
20852.059,8649,3.396857
20875.757,8650,3.414382
20875.840,8651,3.458088
20878.644,8652,3.484629
20878.729,8653,3.409478
20904.120,8654,3.320119
20927.733,8655,2.885009
20927.791,8656,3.012448
20927.832,8657,3.674308
20927.873,8658,6.160485
20958.068,8659,9.121078
20962.601,8660,6.913796
20962.665,8661,3.420585
20965.588,8662,4.130983
20965.624,8663,3.868821
20965.657,8664,4.059438
20965.696,8665,4.018184
20965.729,8666,3.968997
20968.587,8667,4.093191
20968.621,8668,4.056265
20993.850,8669,4.133218
20994.013,8670,4.192575
20994.153,8671,4.210244
21019.641,8672,4.243565
21019.737,8673,4.250344
21043.823,8674,4.337251
21043.869,8675,4.501183
21043.900,8676,4.489427
21077.809,8677,4.643623
21077.891,8678,4.710191
21100.929,8679,4.835467
21101.005,8680,5.072531
21103.301,8681,5.194849
21127.875,8682,5.330365
21127.944,8683,5.414026
21155.264,8684,5.557909
21157.256,8685,5.659024
21157.297,8686,5.613515
21172.783,8687,5.630103
21172.900,8688,5.414964
21178.723,8689,5.234155
21178.865,8690,5.095898
21207.069,8691,4.901819
21228.841,8692,4.742069
21228.925,8693,4.569915
21228.992,8694,4.524767
21229.056,8695,4.538470
21257.486,8696,4.468296
21257.545,8697,4.467286
21257.587,8698,4.519213
21272.844,8699,4.516329
21272.902,8700,4.514670
21277.850,8701,4.493827
21306.220,8702,4.524911
21307.422,8703,4.552678
21327.787,8704,4.644994
21327.861,8705,4.630425
21327.915,8706,4.636483
21327.967,8707,4.808133
21357.817,8708,4.781520
21362.603,8709,4.828471
21362.641,8710,4.797098
21362.767,8711,4.850107
21362.829,8712,4.917830
21388.884,8713,4.914945
21388.932,8714,4.875134
21388.965,8715,4.894029
21414.846,8716,4.932975
21414.894,8717,4.962257
21414.926,8718,4.854074
21441.018,8719,4.885808
21441.091,8720,4.980287
21442.855,8721,4.941413
21442.902,8722,5.055654
21462.775,8723,5.163115
21462.846,8724,5.291852
21462.890,8725,5.298704
21462.922,8726,5.510237
21462.953,8727,5.641282
21488.886,8728,5.543557
21488.933,8729,5.481460
21488.964,8730,5.265384
21515.515,8731,5.158067
21515.625,8732,5.200907
21539.934,8733,5.053779
21539.991,8734,5.085585
21540.030,8735,4.977546
21570.257,8736,5.073252
21570.319,8737,5.124891
21574.754,8738,5.063155
21574.833,8739,5.123016
21574.892,8740,5.125828
21600.911,8741,4.904848
21600.960,8742,4.554841
21603.193,8743,4.682425
21603.333,8744,6.408439
21627.709,8745,10.028657
21653.010,8746,9.917157
21653.366,8747,6.169933
21653.406,8748,5.355319
21653.642,8749,5.705614
21675.726,8750,5.631329
21675.805,8751,5.661981
21700.867,8752,5.695373
21702.716,8753,5.591085
21702.756,8754,5.600821
21727.736,8755,5.725664
21727.782,8756,5.780044
21727.815,8757,5.807522
21753.330,8758,5.741891
21777.763,8759,5.830529
21777.975,8760,5.958617
21778.015,8761,5.917147
21790.827,8762,6.005063
21814.664,8763,6.108486
21814.715,8764,6.107404
21814.750,8765,6.348506
21814.785,8766,6.389327
21841.733,8767,6.539196
21865.679,8768,6.705004
21865.728,8769,6.861363
21867.641,8770,7.027820
21867.710,8771,7.054433
21894.067,8772,7.109534
21898.762,8773,7.170909
21898.808,8774,7.118549
21898.841,8775,7.070877
21898.875,8776,6.774601
21925.782,8777,6.583695
21925.830,8778,6.438009
21925.861,8779,6.251647
21949.898,8780,6.211115
21949.945,8781,5.997923
21974.755,8782,6.075454
21974.833,8783,6.053096
21974.867,8784,5.996553
22000.784,8785,5.987249
22000.838,8786,6.013934
22014.564,8787,6.030522
22014.771,8788,6.027277
22014.814,8789,6.051582
22038.878,8790,6.088147
22038.951,8791,6.086777
22064.704,8792,6.122694
22064.762,8793,6.147359
22064.804,8794,6.202388
22082.748,8795,6.291747
22082.783,8796,6.223447
22098.057,8797,6.280279
22098.104,8798,6.259148
22122.891,8799,6.320595
22122.983,8800,6.349877
22123.056,8801,6.297661
22148.822,8802,6.344107
22148.863,8803,6.257128
22182.945,8804,6.304152
22182.996,8805,6.335092
22183.029,8806,6.272130
22208.649,8807,6.326221
22208.700,8808,6.305810
22233.944,8809,6.328529
22233.993,8810,6.366104
22234.025,8811,6.293550
22259.718,8812,6.309633
22259.802,8813,6.448900
22284.043,8814,6.508256
22284.096,8815,6.630863
22308.345,8816,6.560544
22308.414,8817,6.805685
22308.459,8818,6.879971
22310.402,8819,6.849752
22310.444,8820,6.827827
22316.621,8821,6.578070
22340.816,8822,6.568910
22340.907,8823,6.479407
22365.667,8824,6.331053
22365.715,8825,6.364229
22368.570,8826,6.249051
22392.764,8827,6.356007
22392.838,8828,6.370864
22418.715,8829,6.298382
22418.784,8830,6.357089
22418.834,8831,6.314465
22424.596,8832,6.190199
22424.665,8833,5.866950
22424.714,8834,5.687728
22424.761,8835,7.071598
22453.026,8836,10.238386
22453.544,8837,11.639998
22453.648,8838,8.619689
22476.783,8839,6.323120
22476.846,8840,6.919205
22501.862,8841,6.661226
22501.981,8842,6.837058
22502.074,8843,6.747555
22515.708,8844,6.705220
22515.762,8845,6.765081
22540.737,8846,6.783616
22540.797,8847,6.789746
22565.735,8848,6.808714
22567.686,8849,6.889707
22567.764,8850,6.892592
22600.802,8851,6.874922
22600.850,8852,6.988658
22627.752,8853,7.095686
22627.802,8854,7.150427
22627.836,8855,7.149417
22653.842,8856,7.296040
22653.974,8857,7.402420
22654.110,8858,7.569237
22679.893,8859,7.617342
22680.009,8860,7.778029
22705.734,8861,7.917224
22706.067,8862,7.982133
22708.582,8863,8.029878
22712.745,8864,8.047764
22712.822,8865,8.096230
22719.736,8866,7.928691
22719.799,8867,7.692926
22719.845,8868,7.626069
22719.889,8869,7.415834
22719.932,8870,7.207114
22748.712,8871,7.100158
22748.796,8872,6.999260
22778.612,8873,6.976469
22778.687,8874,6.857974
22778.741,8875,6.821192
22807.954,8876,6.852853
22808.079,8877,6.798617
22829.698,8878,6.790323
22829.750,8879,6.749791
22829.784,8880,6.908964
22856.282,8881,6.862589
22858.279,8882,6.844487
22880.763,8883,6.844559
22882.672,8884,6.905357
22882.736,8885,6.925263
22905.636,8886,6.974522
22905.692,8887,6.940769
22930.784,8888,6.990389
22930.840,8889,6.940913
22930.880,8890,6.993418
22958.720,8891,6.927355
22958.793,8892,6.975315
22983.877,8893,7.062078
22983.945,8894,6.966589
22983.989,8895,6.958655
22984.031,8896,6.923460
22984.073,8897,6.969401
23008.784,8898,6.977118
23008.839,8899,6.907377
23036.001,8900,6.904059
23036.115,8901,6.975460
23036.163,8902,6.924325
23062.691,8903,6.882856
23062.746,8904,6.866628
23088.700,8905,6.962911
23088.760,8906,6.930600
23088.803,8907,6.958800
23114.725,8908,6.886966
23114.795,8909,6.975171
23138.755,8910,7.177040
23138.806,8911,7.201994
23138.842,8912,7.257960
23165.703,8913,7.338808
23165.765,8914,7.355541
23170.571,8915,7.412517
23170.621,8916,7.269427
23194.946,8917,7.063087
23220.736,8918,6.927787
23220.798,8919,6.917690
23220.838,8920,6.946827
23220.877,8921,6.887688
23245.914,8922,6.835039
23272.720,8923,6.829125
23272.769,8924,6.842107
23272.804,8925,6.827971
23272.837,8926,6.897208
23298.848,8927,6.709475
23298.899,8928,6.441976
23298.933,8929,6.047831
23348.747,8930,6.924253
23348.802,8931,9.279385
23348.835,8932,12.291906
23348.868,8933,10.448837
23374.814,8934,6.740343
23385.832,8935,7.206682
23385.909,8936,7.110183
23387.756,8937,7.224063
23387.820,8938,7.227525
23393.909,8939,7.072391
23394.063,8940,7.135281
23394.188,8941,7.106865
23421.766,8942,7.159081
23421.831,8943,7.278731
23445.913,8944,7.204446
23445.977,8945,7.246709
23446.053,8946,7.310825
23471.694,8947,7.341693
23471.745,8948,7.420522
23496.749,8949,7.426508
23496.838,8950,7.554524
23496.877,8951,7.560366
23523.763,8952,7.711533
23523.830,8953,7.863638
23523.870,8954,7.857579
23523.907,8955,8.136329
23523.946,8956,8.193666
23548.737,8957,8.319518
23548.787,8958,8.370941
23548.822,8959,8.383490
23548.856,8960,8.410319
23548.888,8961,8.320023
23574.852,8962,8.180468
23575.021,8963,7.998433
23575.109,8964,7.735045
23575.197,8965,7.578108
23598.737,8966,7.405737
23598.788,8967,7.238848
23598.823,8968,7.213028
23623.900,8969,7.120064
23623.974,8970,7.081551
23624.017,8971,7.078666
23650.699,8972,7.042172
23650.759,8973,7.054793
23675.008,8974,7.002433
23675.086,8975,7.080757
23675.126,8976,7.076574
23675.165,8977,6.995870
23675.205,8978,7.085806
23698.711,8979,7.131387
23698.770,8980,7.160452
23707.829,8981,7.041739
23707.909,8982,7.128646
23707.966,8983,7.211153
23708.023,8984,7.155115
23708.077,8985,7.179203
23758.349,8986,7.214110
23758.423,8987,7.128069
23758.458,8988,7.218510
23758.497,8989,7.184180
23758.530,8990,7.160163
23783.945,8991,7.102105
23784.064,8992,7.113428
23801.822,8993,7.123021
23814.835,8994,7.146460
23814.990,8995,7.079892
23840.687,8996,7.123021
23840.744,8997,7.091720
23840.784,8998,7.124247
23865.677,8999,7.071814
23865.732,9000,7.033229
23890.753,9001,7.076935
23890.803,9002,7.081406
23893.623,9003,7.070732
23915.729,9004,7.068497
23915.779,9005,7.172568
23940.928,9006,7.333183
23941.089,9007,7.305777
23942.755,9008,7.467906
23967.847,9009,7.478869
23967.909,9010,7.538585
23999.715,9011,7.429321
23999.772,9012,7.221034
23999.814,9013,7.177112
23999.859,9014,7.047870
23999.901,9015,6.966228
24006.232,9016,7.009934
24008.218,9017,6.969978
24008.290,9018,6.954833
24008.330,9019,6.939759
24033.679,9020,6.905502
24033.740,9021,6.893818
24033.784,9022,6.930095
24060.660,9023,6.868143
24060.715,9024,6.449693
24060.751,9025,6.157456
24088.702,9026,7.157567
24088.774,9027,9.809479
24088.822,9028,12.346069
24088.859,9029,10.069910
24094.736,9030,6.746257
24094.855,9031,7.431629
24094.967,9032,7.142998
24121.761,9033,7.302026
24121.870,9034,7.193339
24121.959,9035,7.164346
24147.876,9036,7.215913
24147.944,9037,7.228967
24172.864,9038,7.231708
24173.177,9039,7.246493
24173.326,9040,7.330947
24173.465,9041,7.334048
24173.655,9042,7.345876
24221.704,9043,7.353593
24221.841,9044,7.442519
24221.906,9045,7.519834
24221.967,9046,7.591667
24245.714,9047,7.630036
24272.780,9048,7.806012
24272.890,9049,7.864936
24272.928,9050,8.042499
24272.965,9051,8.114404
24284.703,9052,8.290525
24284.783,9053,8.415152
24284.844,9054,8.403468
24310.709,9055,8.453665
24310.796,9056,8.435418
24312.633,9057,8.363224
24337.756,9058,8.267951
24337.812,9059,8.051659
24363.727,9060,7.769519
24363.793,9061,7.604144
24363.842,9062,7.390952
24363.890,9063,7.312628
24363.939,9064,7.208052
24392.729,9065,7.147326
24392.781,9066,7.157278
24398.579,9067,7.011160
24398.654,9068,7.070516
24398.720,9069,7.121434
24398.784,9070,7.047798
24398.849,9071,7.025440
24424.799,9072,7.055010
24424.894,9073,7.063520
24424.936,9074,7.046572
24449.848,9075,7.134488
24449.918,9076,7.121145
24474.821,9077,7.130377
24474.880,9078,7.208196
24474.921,9079,7.230193
24507.878,9080,7.150787
24507.950,9081,7.202354
24528.794,9082,7.220529
24528.906,9083,7.142133
24528.966,9084,7.208413
24562.333,9085,7.203364
24562.433,9086,7.189372
24579.861,9087,7.150571
24580.027,9088,7.138022
24580.134,9089,7.197883
24592.878,9090,7.102971
24592.947,9091,7.133622
24597.927,9092,7.148407
24598.038,9093,7.109678
24598.110,9094,7.157350
24624.755,9095,7.079675
24624.834,9096,7.058183
24624.888,9097,7.028974
24624.939,9098,7.130305
24650.710,9099,7.103692
24650.779,9100,7.192906
24650.831,9101,7.275053
24650.881,9102,7.316234
24650.930,9103,7.393982
24676.528,9104,7.534474
24676.623,9105,7.515434
24676.664,9106,7.494231
24699.706,9107,7.310970
24699.756,9108,7.152230
24699.790,9109,7.073545
24699.827,9110,7.081262
24726.768,9111,7.075204
24726.843,9112,7.014405
24726.917,9113,6.968825
24755.410,9114,6.991615
24755.482,9115,6.988802
24777.851,9116,6.956708
24777.912,9117,7.000342
24777.955,9118,6.965363
24807.404,9119,6.721519
24807.470,9120,6.285833
24811.627,9121,6.695988
24811.684,9122,8.658779
24811.735,9123,12.050659
24813.694,9124,11.038360
24813.790,9125,7.423263
24838.869,9126,7.400256
24839.027,9127,7.321427
24839.060,9128,7.287314
24863.727,9129,7.374725
24863.787,9130,7.253633
24887.160,9131,7.291785
24887.215,9132,7.336645
24890.573,9133,7.327990
24899.614,9134,7.350276
24899.657,9135,7.447568
24925.842,9136,7.482258
24925.918,9137,7.456150
24925.980,9138,7.578685
24950.676,9139,7.626790
24950.740,9140,7.616477
24976.178,9141,7.807671
24976.253,9142,7.773486
24976.310,9143,7.948453
24996.734,9144,7.996918
24996.851,9145,8.173400
25000.692,9146,8.379740
25000.764,9147,8.410536
25002.702,9148,8.642551
25028.857,9149,8.627045
25029.032,9150,8.690945
25029.175,9151,8.754340
25029.312,9152,8.611395
25054.243,9153,8.495279
25054.300,9154,8.254176
25054.345,9155,7.983576
25079.730,9156,7.892053
25107.366,9157,7.708215
25108.660,9158,7.565487
25108.706,9159,7.580488
25108.748,9160,7.488821
25128.891,9161,7.500505
25129.071,9162,7.406963
25154.496,9163,7.315225
25154.655,9164,7.411723
25155.893,9165,7.322365
25179.813,9166,7.390303
25179.884,9167,7.408262
25207.882,9168,7.333183
25207.943,9169,7.409848
25207.983,9170,7.357416
25232.076,9171,7.421965
25232.184,9172,7.448217
25232.244,9173,7.440500
25232.301,9174,7.403934
25258.669,9175,7.493221
25282.703,9176,7.519113
25282.768,9177,7.518463
25282.813,9178,7.433432
25282.856,9179,7.483629
25313.885,9180,7.481898
25314.014,9181,7.467546
25314.114,9182,7.429537
25316.613,9183,7.410425
25316.664,9184,7.434297
25340.712,9185,7.361599
25340.763,9186,7.412300
25340.797,9187,7.351646
25365.706,9188,7.452905
25365.759,9189,7.409776
25390.786,9190,7.343929
25390.850,9191,7.408189
25390.906,9192,7.398669
25412.684,9193,7.500794
25412.744,9194,7.610923
25417.599,9195,7.594191
25417.634,9196,7.754445
25417.666,9197,7.794545
25444.552,9198,7.857579
25444.611,9199,7.836231
25444.650,9200,7.576882
25444.689,9201,7.462713
25470.715,9202,7.363113
25470.785,9203,7.327053
25470.838,9204,7.276135
25495.671,9205,7.207331
25495.743,9206,7.239858
25497.586,9207,7.209134
25517.755,9208,7.199614
25517.828,9209,7.198171
25517.885,9210,7.113356
25517.943,9211,7.184973
25543.813,9212,6.868575
25543.884,9213,6.455823
25568.694,9214,6.709475
25568.753,9215,8.598557
25568.788,9216,12.291833
25593.931,9217,11.551361
25593.979,9218,7.691483
25617.846,9219,7.285222
25617.912,9220,7.369460
25617.959,9221,7.416411
25643.896,9222,7.446125
25643.943,9223,7.347968
25643.974,9224,7.433288
25670.032,9225,7.347535
25670.132,9226,7.391674
25694.959,9227,7.425571
25695.007,9228,7.428744
25695.040,9229,7.486658
25720.773,9230,7.465598
25720.839,9231,7.564189
25741.897,9232,7.567434
25741.944,9233,7.575223
25741.975,9234,7.719394
25747.925,9235,7.757114
25747.973,9236,7.852459
25773.809,9237,7.965041
25773.865,9238,8.077911
25797.916,9239,8.218115
25797.964,9240,8.353199
25797.996,9241,8.417171
25824.734,9242,8.506890
25824.795,9243,8.589974
25843.038,9244,8.583123
25843.086,9245,8.435923
25843.118,9246,8.400150
25844.804,9247,8.135969
25844.841,9248,7.903160
25871.046,9249,7.729131
25871.118,9250,7.441438
25871.162,9251,7.421965
25895.906,9252,7.281832
25895.954,9253,7.245988
25920.710,9254,7.276063
25920.774,9255,7.183603
25922.725,9256,7.208124
25953.068,9257,7.079387
25953.326,9258,7.155043
25978.718,9259,7.169683
25978.785,9260,7.169323
25978.832,9261,7.164058
25978.879,9262,7.185911
25978.926,9263,7.197162
26006.191,9264,7.240362
26006.243,9265,7.151869
26028.692,9266,7.154466
26028.736,9267,7.307724
26028.769,9268,7.259475
26057.892,9269,7.248801
26057.944,9270,7.238920
26094.768,9271,7.302243
26094.824,9272,7.286881
26094.857,9273,7.186632
26094.888,9274,7.132541
26094.918,9275,7.148840
26121.218,9276,7.170044
26121.281,9277,7.192979
26144.719,9278,7.118621
26144.758,9279,7.133983
26144.790,9280,7.089772
26172.722,9281,7.110616
26172.785,9282,7.174371
26178.690,9283,7.088402
26178.753,9284,7.074988
26178.807,9285,7.145522
26207.358,9286,7.275558
26207.448,9287,7.328279
26207.528,9288,7.335851
26230.791,9289,7.568011
26230.840,9290,7.503606
26257.521,9291,7.486441
26257.708,9292,7.452039
26258.708,9293,7.172063
26267.838,9294,7.136363
26267.950,9295,6.979715
26292.847,9296,6.944664
26292.893,9297,6.901247
26292.925,9298,6.838861
26292.955,9299,6.893385
26292.985,9300,6.854800
26318.517,9301,6.854367
26318.642,9302,6.846073
26344.789,9303,6.782823
26344.869,9304,6.622136
26344.929,9305,6.187747
26368.824,9306,6.180679
26368.890,9307,7.623400
26380.692,9308,10.856757
26380.742,9309,11.936779
26380.776,9310,8.800858
26407.925,9311,6.784265
26408.024,9312,7.234737
26408.589,9313,7.011737
26408.623,9314,7.192257
26432.682,9315,6.998034
26458.738,9316,7.064025
26458.790,9317,7.004164
26458.828,9318,7.017651
26458.865,9319,7.084435
26487.865,9320,7.032147
26493.895,9321,7.080036
26493.942,9322,7.121218
26520.063,9323,7.179708
26520.139,9324,7.219447
26545.522,9325,7.200191
26545.599,9326,7.295680
26545.643,9327,7.383740
26586.794,9328,7.438913
26586.925,9329,7.515434
26586.960,9330,7.732088
26586.992,9331,7.821158
26587.026,9332,7.913618
26588.688,9333,7.982206
26588.720,9334,8.245161
26593.673,9335,8.146787
26593.704,9336,8.142243
26593.734,9337,8.164529
26619.835,9338,7.990716
26619.920,9339,7.832697
26645.092,9340,7.513343
26645.139,9341,7.300945
26646.813,9342,7.145378
26670.803,9343,7.011881
26670.872,9344,6.951371
26682.901,9345,6.766379
26682.939,9346,6.809364
26682.971,9347,6.805685
26708.840,9348,6.723827
26708.893,9349,6.726279
26733.739,9350,6.741137
26733.786,9351,6.711855
26733.819,9352,6.709187
26733.859,9353,6.584777
26733.893,9354,6.750152
26760.833,9355,6.730967
26760.898,9356,6.764937
26760.931,9357,6.731039
26760.964,9358,6.785059
26761.002,9359,6.833236
26770.697,9360,6.743877
26770.757,9361,6.793713
26772.613,9362,6.781813
26772.663,9363,6.734934
26772.707,9364,6.725270
26797.760,9365,6.750440
26797.795,9366,6.737891
26797.904,9367,6.783544
26797.939,9368,6.699090
26823.770,9369,6.678679
26823.833,9370,6.748132
26823.878,9371,6.655240
26849.925,9372,6.788809
26849.972,9373,6.878456
26850.004,9374,6.945746
26877.838,9375,6.931105
26877.887,9376,7.106216
26877.919,9377,7.149489
26877.951,9378,7.067415
26907.271,9379,7.055803
26907.323,9380,6.892448
26907.358,9381,6.744670
26929.812,9382,6.662668
26929.860,9383,6.525565
26929.892,9384,6.554269
26957.535,9385,6.581676
26957.594,9386,6.514602
26957.634,9387,6.522319
26957.672,9388,6.502991
26975.687,9389,6.481931
26975.735,9390,6.498952
26982.593,9391,6.388822
27008.506,9392,6.087354
27008.558,9393,5.776438
27033.761,9394,6.817946
27033.846,9395,9.460555
27033.913,9396,11.742699
27059.736,9397,9.437620
27059.822,9398,6.403030
27088.714,9399,7.033950
27088.793,9400,6.732121
27088.853,9401,6.781669
27114.709,9402,6.870234
27114.781,9403,6.780731
27114.834,9404,6.844415
27114.885,9405,6.833813
27141.726,9406,6.814628
27165.725,9407,6.911632
27165.806,9408,6.852420
27167.571,9409,6.930600
27167.626,9410,6.960170
27187.845,9411,7.053423
27196.699,9412,7.097201
27196.806,9413,7.052702
27196.888,9414,7.174443
27196.970,9415,7.226010
27219.746,9416,7.360806
27219.826,9417,7.532599
27219.887,9418,7.581209
27244.740,9419,7.759422
27244.787,9420,7.863998
27244.820,9421,7.857868
27244.852,9422,7.966411
27274.724,9423,7.919676
27274.796,9424,7.938283
27274.848,9425,7.816398
27281.698,9426,7.651888
27281.843,9427,7.415690
27281.978,9428,7.203580
27309.497,9429,6.971205
27309.556,9430,6.864609
27309.609,9431,6.799339
27309.652,9432,6.765946
27334.811,9433,6.649614
27359.724,9434,6.648965
27359.783,9435,6.563934
27359.825,9436,6.558525
27359.865,9437,6.622496
27379.934,9438,6.575690
27405.162,9439,6.612760
27405.262,9440,6.539124
27405.363,9441,6.570929
27432.515,9442,6.611462
27432.630,9443,6.565304
27432.704,9444,6.583334
27432.774,9445,6.509265
27464.695,9446,6.663245
27464.767,9447,6.701037
27470.770,9448,6.638363
27470.826,9449,6.650984
27470.867,9450,6.552250
27495.767,9451,6.505227
27495.840,9452,6.615356
27497.597,9453,6.533282
27497.651,9454,6.568189
27524.799,9455,6.515973
27548.824,9456,6.377283
27548.876,9457,6.532705
27548.910,9458,6.443202
27548.943,9459,6.469166
27570.719,9460,6.737386
27596.732,9461,6.700171
27596.804,9462,6.717120
27596.854,9463,6.884514
27596.903,9464,6.988442
27622.732,9465,6.941779
27658.200,9466,6.841169
27658.257,9467,6.610885
27658.298,9468,6.425965
27658.338,9469,6.422287
27663.651,9470,6.389688
27663.732,9471,6.243930
27663.803,9472,6.256335
27689.703,9473,6.103870
27689.752,9474,6.192219
27713.691,9475,6.295713
27713.758,9476,6.197556
27713.809,9477,6.138560
27747.807,9478,6.047182
27747.910,9479,5.691478
27747.947,9480,5.421311
27747.983,9481,6.333361
27752.851,9482,9.094537
27752.980,9483,11.736281
27756.950,9484,9.377759
27778.965,9485,5.894501
27779.057,9486,6.445798
27779.099,9487,6.423080
27807.075,9488,6.462531
27807.132,9489,6.399496
27831.828,9490,6.449260
27831.898,9491,6.368845
27831.947,9492,6.375336
27838.801,9493,6.487917
27838.860,9494,6.408295
27863.668,9495,6.454165
27863.721,9496,6.475945
27863.758,9497,6.552178
27889.675,9498,6.582253
27889.724,9499,6.553115
27889.757,9500,6.657980
27889.788,9501,6.670602
27923.681,9502,6.761114
27923.729,9503,6.870523
27923.763,9504,7.023637
27925.581,9505,7.170116
27925.614,9506,7.220313
27932.839,9507,7.368450
27932.903,9508,7.447352
27957.922,9509,7.465382
27982.723,9510,7.547168
27982.784,9511,7.448866
27982.827,9512,7.387130
27982.869,9513,7.168601
28009.659,9514,6.969690
28009.708,9515,6.726640
28009.744,9516,6.550519
28026.722,9517,6.476883
28026.791,9518,6.329250
28026.837,9519,6.187459
28053.545,9520,6.231237
28053.913,9521,6.185079
28053.978,9522,6.127454
28054.058,9523,6.131637
28078.872,9524,6.155725
28111.673,9525,6.160413
28111.724,9526,6.130555
28111.764,9527,6.171015
28111.803,9528,6.144835
28137.769,9529,6.152336
28137.836,9530,6.230443
28163.939,9531,6.158466
28164.012,9532,6.286698
28164.060,9533,6.189767
28189.725,9534,6.189045
28189.792,9535,6.257561
28210.694,9536,6.184646
28210.762,9537,6.205994
28210.811,9538,6.219841
28217.837,9539,6.213927
28217.998,9540,6.244723
28218.060,9541,6.180174
28245.024,9542,6.204912
28245.093,9543,6.123054
28245.141,9544,6.164091
28245.188,9545,6.153994
28269.992,9546,6.024680
28295.685,9547,6.146854
28295.735,9548,6.136902
28295.769,9549,6.339203
28295.803,9550,6.400578
28324.751,9551,6.373821
28329.626,9552,6.480850
28329.665,9553,6.603745
28329.702,9554,6.541720
28335.106,9555,6.513449
28335.371,9556,6.302637
28335.417,9557,6.274077
28335.459,9558,5.996048
28337.687,9559,5.973185
28337.800,9560,6.099903
28363.755,9561,5.946284
28363.824,9562,5.924215
28363.877,9563,5.931932
28387.727,9564,5.848127
28387.775,9565,5.923782
28413.699,9566,5.920320
28413.792,9567,5.876398
28413.851,9568,5.680083
28437.795,9569,5.173284
28437.847,9570,5.390298
28437.883,9571,7.130882
28437.919,9572,10.547139
28464.779,9573,10.514107
28464.895,9574,6.902400
28464.989,9575,6.071920
28489.794,9576,6.215370
28489.867,9577,6.145917
28514.666,9578,6.248185
28514.722,9579,6.121035
28514.762,9580,6.143104
28539.699,9581,6.117284
28539.753,9582,6.173107
28566.367,9583,6.220923
28566.434,9584,6.171087
28566.476,9585,6.179670
28589.700,9586,6.200729
28589.751,9587,6.229722
28615.709,9588,6.327086
28615.789,9589,6.379302
28615.856,9590,6.366104
28632.801,9591,6.594657
28632.857,9592,6.618890
28659.378,9593,6.699162
28659.431,9594,6.771211
28683.791,9595,7.084940
28683.863,9596,7.090205
28683.918,9597,7.217067
28709.708,9598,7.274620
28709.808,9599,7.238487
28725.693,9600,7.310825
28727.600,9601,7.206177
28727.643,9602,7.134632
28732.156,9603,6.838501
28732.213,9604,6.671900
28758.217,9605,6.515324
28780.711,9606,6.287203
28780.774,9607,6.170582
28782.627,9608,6.135675
28782.661,9609,6.045668
28809.042,9610,6.028935
28825.732,9611,5.894573
28827.631,9612,5.949602
28827.688,9613,5.981912
28827.723,9614,5.939721
28853.056,9615,5.904526
28853.370,9616,5.891976
28853.439,9617,5.957679
28878.780,9618,5.957463
28878.877,9619,5.968281
28878.942,9620,6.068314
28879.004,9621,5.973762
28907.335,9622,6.008886
28929.829,9623,6.058433
28929.893,9624,6.005784
28929.932,9625,6.034705
28929.969,9626,6.009390
28939.704,9627,6.012131
28965.689,9628,6.012203
28965.874,9629,6.021002
28965.965,9630,5.982778
28965.999,9631,5.889380
28990.805,9632,6.032469
29015.747,9633,5.961646
29015.804,9634,5.902723
29017.834,9635,6.099687
29018.196,9636,6.100985
29034.755,9637,6.210754
29040.701,9638,6.249628
29040.752,9639,6.377788
29042.618,9640,6.437360
29042.669,9641,6.369350
29067.695,9642,6.274437
29067.746,9643,6.122982
29067.781,9644,5.979027
29092.802,9645,5.895943
29092.878,9646,5.825552
29117.685,9647,5.838534
29117.749,9648,5.846612
29117.798,9649,5.785813
29129.747,9650,5.815383
29129.813,9651,5.760282
29135.708,9652,5.815455
29135.770,9653,5.781053
29135.809,9654,5.664865
29161.654,9655,5.323225
29161.711,9656,5.112053
29161.750,9657,6.446592
29161.789,9658,9.580132
29188.797,9659,10.951597
29213.706,9660,9.777746
29213.775,9661,5.990999
29213.826,9662,6.213062
29213.875,9663,6.153778
29238.714,9664,6.176857
29265.711,9665,6.222943
29265.777,9666,6.167770
29265.820,9667,6.179886
29265.864,9668,6.254820
29314.827,9669,6.211692
29314.920,9670,6.283885
29314.959,9671,6.251431
29314.997,9672,6.272707
29315.034,9673,6.386154
29340.703,9674,6.324057
29340.772,9675,6.393078
29340.823,9676,6.544677
29351.878,9677,6.536167
29352.082,9678,6.663173
29375.917,9679,6.761258
29376.097,9680,6.918844
29377.604,9681,7.032796
29402.679,9682,7.113068
29402.751,9683,7.294670
29427.757,9684,7.330731
29427.871,9685,7.407901
29427.950,9686,7.488605
29452.971,9687,7.392683
29453.256,9688,7.377394
29461.608,9689,7.149778
29461.721,9690,6.933341
29463.230,9691,6.722169
29485.754,9692,6.544389
29485.808,9693,6.396539
29488.328,9694,6.263259
29488.517,9695,6.240396
29517.579,9696,6.243425
29538.710,9697,6.129184
29538.758,9698,6.124929
29538.793,9699,6.034633
29538.826,9700,6.076752
29549.784,9701,6.105024
29549.845,9702,6.016386
29549.884,9703,6.093629
29575.847,9704,6.067160
29576.004,9705,6.144619
29576.130,9706,6.135892
29576.252,9707,6.128175
29600.821,9708,6.207653
29625.742,9709,6.163370
29625.800,9710,6.168419
29627.586,9711,6.179165
29627.646,9712,6.180391
29647.677,9713,6.258426
29653.616,9714,6.176208
29653.658,9715,6.175775
29678.768,9716,6.110000
29678.821,9717,6.108630
29711.713,9718,6.097307
29711.784,9719,6.129689
29711.826,9720,6.137911
29729.696,9721,6.072930
29729.761,9722,5.995399
29729.812,9723,6.153562
29755.757,9724,6.101201
29756.672,9725,6.244940
29763.634,9726,6.346775
29763.712,9727,6.351031
29763.767,9728,6.527368
29763.819,9729,6.602230
29763.870,9730,6.552538
29765.573,9731,6.523473
29765.632,9732,6.227631
29791.827,9733,6.246815
29791.889,9734,6.071054
29791.933,9735,6.045307
29825.322,9736,5.927532
29825.414,9737,5.944048
29830.710,9738,5.963016
29830.763,9739,5.904526
29832.597,9740,5.939216
29858.590,9741,5.929191
29858.666,9742,5.901064
29858.723,9743,5.864426
29858.778,9744,5.485283
29884.750,9745,5.083349
29908.982,9746,5.698907
29910.552,9747,7.994899
29910.685,9748,11.440293
29910.790,9749,9.921268
29934.863,9750,5.879283
29934.924,9751,6.130915
29934.965,9752,6.179598
29964.467,9753,6.305955
29964.552,9754,6.171592
29985.690,9755,6.195104
29985.737,9756,6.167337
29985.772,9757,6.100913
30015.235,9758,6.179742
30016.413,9759,6.232679
30031.636,9760,6.291386
30031.690,9761,6.309128
30031.736,9762,6.242055
30033.596,9763,6.348074
30033.648,9764,6.327086
30041.762,9765,6.416229
30041.883,9766,6.465055
30041.970,9767,6.528666
30065.700,9768,6.642330
30065.773,9769,6.711567
30090.746,9770,6.891294
30090.809,9771,7.041739
30090.856,9772,7.078666
30121.140,9773,7.260196
30121.203,9774,7.269788
30140.710,9775,7.326043
30140.779,9776,7.355541
30140.821,9777,7.316234
30168.736,9778,7.198388
30168.846,9779,6.957790
30192.766,9780,6.790540
30192.863,9781,6.614635
30192.939,9782,6.390842
30240.698,9783,6.251863
30240.771,9784,6.126804
30240.815,9785,6.156663
30240.884,9786,6.117357
30240.960,9787,6.039754
30241.039,9788,6.084758
30241.115,9789,5.949025
30243.596,9790,6.034345
30243.629,9791,6.081007
30249.566,9792,5.986528
30249.602,9793,5.944625
30249.634,9794,6.087498
30258.433,9795,6.034345
30258.502,9796,6.114039
30258.644,9797,5.997130
30258.758,9798,6.073434
30283.706,9799,6.113534
30283.756,9800,6.113678
30283.790,9801,6.128608
30309.665,9802,6.027349
30309.728,9803,6.052663
30334.806,9804,6.073362
30334.885,9805,6.016098
30334.945,9806,6.056270
30364.499,9807,6.003477
30364.553,9808,6.054899
30385.797,9809,6.080070
30385.934,9810,5.969219
30386.061,9811,6.020930
30414.345,9812,5.959410
30414.399,9813,6.033191
30438.465,9814,5.976215
30438.599,9815,5.950106
30438.660,9816,6.057568
30452.767,9817,6.140796
30452.813,9818,6.159403
30460.192,9819,6.284751
30460.311,9820,6.373244
30484.664,9821,6.448972
30509.712,9822,6.363508
30509.782,9823,6.336174
30509.829,9824,6.123343
30509.875,9825,6.001313
30534.751,9826,5.936548
30534.815,9827,5.877119
30534.862,9828,5.849136
30560.703,9829,5.785020
30560.763,9830,5.757542
30562.732,9831,5.691046
30587.763,9832,5.653903
30587.813,9833,5.721481
30587.847,9834,5.639479
30587.879,9835,5.597864
30613.659,9836,5.279015
30613.708,9837,4.959877
30613.742,9838,6.014511
30639.750,9839,8.736309
30639.803,9840,11.083508
30639.837,9841,8.818384
30647.765,9842,5.518819
30647.803,9843,6.124929
30647.836,9844,5.939000
30647.868,9845,5.998212
30655.417,9846,5.972681
30655.461,9847,5.886135
30655.504,9848,5.882529
30655.540,9849,5.915272
30657.552,9850,5.903804
30662.605,9851,5.955443
30662.658,9852,5.948303
30687.733,9853,5.949746
30713.752,9854,6.026411
30713.799,9855,6.040547
30713.832,9856,6.127670
30713.864,9857,6.120458
30738.807,9858,6.213927
30763.693,9859,6.341150
30763.746,9860,6.358315
30763.779,9861,6.413344
30763.812,9862,6.589393
30789.792,9863,6.744815
30789.840,9864,6.797464
30789.871,9865,6.916248
30816.783,9866,7.011160
30816.849,9867,7.025151
30816.892,9868,7.000342
30839.808,9869,6.924325
30839.858,9870,6.805397
30839.890,9871,6.688704
30839.922,9872,6.298238
30847.776,9873,6.114616
30847.814,9874,6.019704
30847.846,9875,5.870845
30849.674,9876,5.766124
30849.711,9877,5.642436
30857.477,9878,5.679723
30857.552,9879,5.699340
30857.613,9880,5.568944
30860.635,9881,5.620150
30860.696,9882,5.569449
30886.050,9883,5.566419
30886.098,9884,5.609476
30887.845,9885,5.587695
30912.707,9886,5.583729
30912.774,9887,5.594763
30912.826,9888,5.658230
30912.878,9889,5.590580
30938.881,9890,5.641642
30938.930,9891,5.738285
30938.963,9892,5.674458
30964.967,9893,5.631113
30965.036,9894,5.640633
30965.080,9895,5.690685
30990.942,9896,5.679073
30992.811,9897,5.622314
30992.850,9898,5.594835
30992.882,9899,5.627579
31019.663,9900,5.586253
31019.726,9901,5.641210
31019.771,9902,5.560073
31019.814,9903,5.673376
31019.857,9904,5.787977
31025.764,9905,5.770235
31025.804,9906,5.941596
31025.838,9907,6.048048
31028.885,9908,6.022372
31029.046,9909,6.009030
31033.876,9910,5.857791
31034.040,9911,5.681381
31034.181,9912,5.554519
31064.930,9913,5.441072
31065.037,9914,5.476916
31065.096,9915,5.475835
31065.147,9916,5.461699
31090.147,9917,5.392823
31114.812,9918,5.346088
31114.955,9919,5.381500
31115.025,9920,5.406093
31115.080,9921,5.396501
31142.010,9922,5.140108
31166.917,9923,4.898429
31167.017,9924,4.733270
31167.883,9925,5.944697
31168.007,9926,8.999048
31193.052,9927,10.404915
31208.104,9928,7.624049
31208.185,9929,5.502015
31208.246,9930,5.953713
31208.370,9931,5.606880
31214.680,9932,5.664865
31214.729,9933,5.684266
31214.763,9934,5.698690
31214.797,9935,5.674674
31214.830,9936,5.640705
31222.713,9937,5.644383
31222.774,9938,5.749753
31222.813,9939,5.717009
31248.844,9940,5.707417
31248.891,9941,5.816321
31248.923,9942,5.813436
31248.953,9943,5.917147
31275.789,9944,6.023166
31300.038,9945,5.982778
31300.085,9946,6.130050
31301.819,9947,6.238809
31301.857,9948,6.341511
31325.803,9949,6.537754
31327.707,9950,6.611245
31327.748,9951,6.777630
31357.531,9952,6.782318
31357.599,9953,6.787078
31378.718,9954,6.879394
31378.770,9955,6.771932
31378.805,9956,6.638363
31384.609,9957,6.454020
31384.642,9958,6.216163
31390.602,9959,6.079565
31390.636,9960,5.939432
31390.667,9961,5.752205
31393.583,9962,5.670563
31393.627,9963,5.552861
31399.794,9964,5.538292
31399.831,9965,5.450304
31399.862,9966,5.530503
31403.021,9967,5.501294
31403.075,9968,5.393688
31427.691,9969,5.480306
31427.741,9970,5.487446
31427.775,9971,5.484201
31455.971,9972,5.471579
31457.077,9973,5.408257
31478.845,9974,5.524733
31478.890,9975,5.502880
31478.922,9976,5.516439
31507.248,9977,5.544927
31507.333,9978,5.554808
31530.853,9979,5.594403
31530.907,9980,5.542980
31530.942,9981,5.587335
31557.236,9982,5.549543
31557.310,9983,5.515069
31558.639,9984,5.559063
31558.716,9985,5.402703
31585.688,9986,5.507208
31590.586,9987,5.534181
31590.634,9988,5.498481
31592.597,9989,5.614236
31592.629,9990,5.614957
31617.689,9991,5.752710
31617.739,9992,5.756316
31617.774,9993,5.992947
31642.860,9994,6.007010
31642.908,9995,5.842285
31668.413,9996,5.805575
31668.473,9997,5.647412
31668.530,9998,5.517232
31694.032,9999,5.453261
31694.079,10000,5.288751
31718.771,10001,5.335270
31718.884,10002,5.352218
31718.971,10003,5.247281
31746.834,10004,5.296252
31746.901,10005,5.308945
31746.958,10006,5.280529
31747.002,10007,5.211509
31755.916,10008,5.213168
31757.775,10009,4.891866
31758.623,10010,4.549504
31758.708,10011,5.661836
31758.766,10012,8.391784
31758.831,10013,10.713379
31766.518,10014,8.366109
31766.583,10015,5.153739
31766.646,10016,5.777015
31766.720,10017,5.517016
31770.692,10018,5.666019
31770.760,10019,5.700782
31770.819,10020,5.560361
31773.646,10021,5.556467
31773.749,10022,5.615823
31799.702,10023,5.672294
31799.763,10024,5.623900
31825.691,10025,5.712105
31825.740,10026,5.737708
31825.774,10027,5.796704
31850.843,10028,5.836010
31850.974,10029,5.924864
31875.763,10030,5.944553
31878.603,10031,6.003981
31878.653,10032,6.180030
31902.997,10033,6.227847
31903.118,10034,6.372956
31928.732,10035,6.501837
31928.839,10036,6.654663
31928.928,10037,6.764937
31942.053,10038,6.716687
31942.155,10039,6.879682
31945.930,10040,6.917402
31948.707,10041,6.854944
31948.756,10042,6.696565
31953.686,10043,6.583839
31956.908,10044,6.375552
31957.918,10045,6.128824
31957.961,10046,5.899982
31958.001,10047,5.824182
31958.040,10048,5.778313
31958.078,10049,5.687656
31962.646,10050,5.571252
31962.705,10051,5.638253
31987.705,10052,5.648566
32012.914,10053,5.532739
32013.080,10054,5.585387
32013.155,10055,5.530575
32013.226,10056,5.485066
32038.708,10057,5.628444
32038.768,10058,5.615246
32038.806,10059,5.667606
32065.594,10060,5.598946
32065.670,10061,5.567141
32065.711,10062,5.639983
32090.722,10063,5.628083
32090.779,10064,5.685997
32092.602,10065,5.723645
32092.656,10066,5.685997
32140.849,10067,5.636594
32140.936,10068,5.621376
32140.982,10069,5.680011
32141.025,10070,5.633132
32141.068,10071,5.488600
32141.110,10072,5.708715
32148.603,10073,5.617265
32148.664,10074,5.624045
32148.713,10075,5.593754
32148.760,10076,5.592600
32156.045,10077,5.607096
32157.126,10078,5.547307
32179.730,10079,5.693642
32179.786,10080,5.821730
32179.826,10081,5.816177
32207.661,10082,5.901064
32207.736,10083,6.036869
32229.677,10084,6.011410
32229.738,10085,5.984509
32229.782,10086,5.877408
32259.076,10087,5.734607
32259.132,10088,5.569160
32282.148,10089,5.524156
32282.206,10090,5.508001
32282.247,10091,5.381644
32308.185,10092,5.387341
32308.239,10093,5.400756
32332.703,10094,5.431191
32332.760,10095,5.340679
32332.800,10096,5.359214
32340.714,10097,5.369023
32340.801,10098,5.092220
32340.872,10099,4.821619
32345.653,10100,4.773442
32345.741,10101,6.288790
32362.736,10102,9.747743
32362.818,10103,10.440760
32379.847,10104,7.124607
32380.016,10105,5.273461
32380.122,10106,5.666524
32406.957,10107,5.655418
32407.008,10108,5.662125
32431.711,10109,5.635296
32431.767,10110,5.606519
32431.806,10111,5.540528
32459.284,10112,5.668976
32459.373,10113,5.626136
32482.753,10114,5.624694
32482.853,10115,5.685276
32482.954,10116,5.702152
32508.659,10117,5.735400
32508.708,10118,5.713259
32508.743,10119,5.852670
32508.777,10120,5.842429
32534.811,10121,5.897963
32534.875,10122,6.106250
32534.921,10123,6.082666
32556.583,10124,6.249844
32557.614,10125,6.439308
32557.673,10126,6.506236
32557.724,10127,6.647523
32557.771,10128,6.654158
32586.030,10129,6.730102
32586.132,10130,6.746257
32612.246,10131,6.678679
32612.303,10132,6.574896
32612.345,10133,6.317927
32636.719,10134,6.076103
32636.790,10135,5.847405
32660.654,10136,5.749104
32660.706,10137,5.661981
32663.600,10138,5.485138
32687.755,10139,5.471435
32687.806,10140,5.354382
32713.168,10141,5.339308
32713.611,10142,5.404362
32713.654,10143,5.276490
32739.209,10144,5.309162
32739.261,10145,5.311181
32757.750,10146,5.259326
32757.831,10147,5.372124
32757.875,10148,5.256224
32765.811,10149,5.415469
32765.964,10150,5.303392
32766.097,10151,5.358421
32766.289,10152,5.397222
32789.993,10153,5.365489
32790.061,10154,5.410132
32790.109,10155,5.295603
32815.689,10156,5.357699
32815.763,10157,5.435086
32841.754,10158,5.254638
32841.831,10159,5.307286
32841.892,10160,5.312696
32866.698,10161,5.285722
32866.748,10162,5.342121
32890.833,10163,5.294665
32890.897,10164,5.330726
32890.976,10165,5.215692
32915.770,10166,5.145085
32915.888,10167,5.298199
32940.912,10168,5.349910
32941.028,10169,5.472084
32942.829,10170,5.445471
32947.985,10171,5.419724
32948.054,10172,5.692127
32948.097,10173,5.711600
32948.139,10174,5.694652
32958.673,10175,5.580844
32958.735,10176,5.277067
32958.779,10177,5.253123
32959.586,10178,5.148619
32959.628,10179,5.029041
32983.829,10180,5.088181
33010.658,10181,5.029546
33010.750,10182,4.990528
33010.813,10183,4.899871
33010.873,10184,4.953602
33035.721,10185,4.966440
33060.267,10186,4.864676
33060.345,10187,4.886529
33060.405,10188,4.550226
33060.463,10189,4.157163
33086.122,10190,4.978700
33086.185,10191,7.151148
33086.227,10192,10.299185
33111.681,10193,8.691738
33111.732,10194,4.915450
33121.107,10195,5.359286
33121.195,10196,5.167587
33122.617,10197,5.247786
33128.755,10198,5.180280
33128.827,10199,5.152081
33132.627,10200,5.209417
33132.668,10201,5.168092
33158.679,10202,5.213528
33158.791,10203,5.207903
33158.887,10204,5.205811
33183.741,10205,5.233939
33183.811,10206,5.257306
33211.589,10207,5.345439
33233.694,10208,5.318249
33233.745,10209,5.390443
33259.224,10210,5.478503
33259.328,10211,5.509299
33283.833,10212,5.726169
33303.817,10213,5.738430
33304.261,10214,5.859017
33304.425,10215,6.033695
33304.530,10216,6.171159
33310.645,10217,6.326509
33310.703,10218,6.247608
33310.746,10219,6.311869
33319.665,10220,6.324850
33319.745,10221,6.185439
33319.805,10222,6.043360
33319.850,10223,5.679290
33319.895,10224,5.507857
33342.668,10225,5.375658
33342.717,10226,5.116380
33368.204,10227,5.123593
33368.262,10228,4.999327
33368.304,10229,4.891866
33393.805,10230,4.914368
33393.893,10231,4.774668
33418.683,10232,4.856670
33418.737,10233,4.806257
33418.772,10234,4.723534
33445.797,10235,4.865037
33445.860,10236,4.749786
33469.672,10237,4.752887
33469.719,10238,4.759667
33469.753,10239,4.832942
33492.953,10240,4.788804
33493.016,10241,4.824072
33500.956,10242,4.888116
33501.019,10243,4.880759
33501.063,10244,4.855012
33509.741,10245,4.879605
33509.815,10246,4.764643
33509.882,10247,4.916459
33509.937,10248,4.772216
33535.722,10249,4.813614
33535.783,10250,4.769836
33535.831,10251,4.770125
33559.695,10252,4.840443
33559.758,10253,4.713365
33584.724,10254,4.785919
33584.794,10255,4.931172
33584.839,10256,4.937591
33610.715,10257,4.987788
33610.790,10258,5.125756
33635.803,10259,5.248363
33635.874,10260,5.178766
33635.923,10261,5.133690
33663.676,10262,5.067770
33663.742,10263,4.826812
33670.977,10264,4.770702
33671.110,10265,4.690142
33672.665,10266,4.661077
33677.646,10267,4.630136
33677.700,10268,4.637926
33683.705,10269,4.568040
33683.764,10270,4.571790
33708.764,10271,4.531835
33708.821,10272,4.538326
33708.862,10273,4.592128
33734.758,10274,4.465339
33734.845,10275,4.136031
33759.031,10276,3.822879
33759.085,10277,4.905857
33759.125,10278,7.544355
33783.814,10279,9.805368
33783.926,10280,7.648859
33812.860,10281,4.540129
33812.970,10282,5.165640
33813.014,10283,4.882346
33835.044,10284,4.847727
33835.151,10285,4.915594
33860.661,10286,4.841092
33860.719,10287,4.913719
33860.767,10288,4.931388
33874.176,10289,4.920065
33874.254,10290,4.985912
33879.627,10291,4.956054
33879.687,10292,5.039643
33879.744,10293,5.045341
33883.625,10294,5.085729
33917.060,10295,5.198383
33917.145,10296,5.214322
33917.189,10297,5.340246
33938.723,10298,5.350559
33967.939,10299,5.555096
33968.068,10300,5.707706
33968.110,10301,5.787472
33968.150,10302,5.943399
33989.684,10303,6.083315
33989.739,10304,6.072353
33989.821,10305,6.218615
34015.419,10306,6.173539
34015.570,10307,6.159187
34040.708,10308,6.054611
34040.759,10309,5.810191
34040.794,10310,5.714918
34073.668,10311,5.323297
34073.718,10312,5.299714
34080.621,10313,5.082844
34080.666,10314,4.969829
34080.703,10315,4.990312
34107.812,10316,4.874124
34107.898,10317,4.888043
34107.952,10318,4.856166
34107.992,10319,4.787506
34132.845,10320,4.831716
34158.947,10321,4.813109
34159.430,10322,4.857680
34159.468,10323,4.852992
34159.654,10324,4.809142
34184.882,10325,4.931028
34185.360,10326,4.846357
34185.405,10327,4.881264
34211.658,10328,4.937158
34211.720,10329,4.913142
34211.766,10330,4.993918
34236.734,10331,4.930379
34236.816,10332,4.976465
34236.881,10333,4.922013
34236.945,10334,4.911555
34243.649,10335,5.018511
34243.705,10336,4.918046
34243.799,10337,4.939250
34246.633,10338,4.797603
34246.754,10339,4.852055
34251.599,10340,4.969757
34251.635,10341,4.915882
34261.834,10342,5.074189
34282.743,10343,5.144869
34282.794,10344,5.125684
34309.487,10345,5.330005
34309.560,10346,5.393111
34309.616,10347,5.398953
34334.726,10348,5.273822
34334.780,10349,5.124530
34361.999,10350,5.025796
34362.066,10351,4.852920
34384.651,10352,4.854002
34384.724,10353,4.753392
34384.781,10354,4.767889
34410.680,10355,4.586070
34410.742,10356,4.640883
34425.687,10357,4.713581
34427.615,10358,4.754907
34427.677,10359,4.641387
34433.691,10360,4.684300
34433.743,10361,4.639152
34433.782,10362,4.176275
34433.819,10363,3.927239
34433.855,10364,4.898934
34459.750,10365,7.743699
34459.812,10366,10.383279
34485.690,10367,8.036441
34485.741,10368,4.490365
34485.777,10369,4.989735
34510.646,10370,4.993774
34510.704,10371,5.060630
34535.691,10372,4.968315
34535.741,10373,5.011371
34535.776,10374,4.912493
34563.694,10375,5.015266
34563.762,10376,5.004520
34587.758,10377,5.024570
34587.823,10378,5.046062
34587.859,10379,5.033441
34614.997,10380,5.167659
34615.137,10381,5.176746
34615.190,10382,5.151359
34615.238,10383,5.201340
34625.286,10384,5.293078
34625.356,10385,5.422465
34626.737,10386,5.488528
34626.786,10387,5.553798
34626.830,10388,5.807450
34648.925,10389,5.864859
34648.994,10390,6.047471
34649.040,10391,6.074300
34673.728,10392,6.194022
34673.798,10393,6.218832
34698.658,10394,6.062184
34698.710,10395,5.970301
34698.746,10396,5.809181
34723.767,10397,5.534902
34723.830,10398,5.423042
34748.725,10399,5.165351
34748.791,10400,5.079959
34748.860,10401,4.910113
34774.814,10402,4.856815
34775.009,10403,4.876215
34790.828,10404,4.770774
34790.900,10405,4.749353
34790.952,10406,4.751301
34798.762,10407,4.689637
34798.811,10408,4.718630
34809.669,10409,4.685454
34809.731,10410,4.750507
34809.767,10411,4.774380
34835.576,10412,4.736588
34835.719,10413,4.795944
34858.674,10414,4.752815
34858.733,10415,4.821764
34858.774,10416,4.804238
34885.726,10417,4.758008
34885.793,10418,4.807051
34910.659,10419,4.748704
34910.702,10420,4.758080
34910.736,10421,4.746180
34910.769,10422,4.669948
34936.769,10423,4.755989
34944.688,10424,4.679756
34944.736,10425,4.675429
34944.772,10426,4.703556
34944.805,10427,4.645859
34950.641,10428,4.700816
34958.573,10429,4.657471
34958.626,10430,4.683146
34983.734,10431,4.605182
34983.784,10432,4.774163
34983.817,10433,4.962834
35008.702,10434,4.866623
35008.759,10435,4.985840
35033.828,10436,5.142272
35033.877,10437,5.071665
35033.910,10438,5.133545
35059.790,10439,4.890423
35059.888,10440,4.733631
35084.697,10441,4.639584
35084.746,10442,4.585782
35084.781,10443,4.545033
35084.814,10444,4.450842
35084.847,10445,4.526281
35110.673,10446,4.491591
35110.721,10447,4.489283
35129.705,10448,4.516184
35129.755,10449,4.424085
35129.789,10450,4.470387
35132.612,10451,4.223010
35132.645,10452,3.743113
35158.277,10453,3.985730
35158.332,10454,5.762518
35158.374,10455,9.403506
35183.846,10456,9.227818
35183.893,10457,5.538292
35209.809,10458,4.593282
35209.952,10459,4.851478
35210.001,10460,4.919777
35235.635,10461,4.819456
35235.691,10462,4.709398
35259.805,10463,4.839794
35259.987,10464,4.796737
35260.028,10465,4.802074
35320.791,10466,4.814696
35320.958,10467,4.741204
35321.062,10468,4.881625
35321.097,10469,4.903045
35321.130,10470,4.888332
35326.610,10471,4.933552
35326.653,10472,4.933047
35350.870,10473,5.044475
35350.920,10474,5.103759
35357.025,10475,5.202638
35357.380,10476,5.283558
35357.450,10477,5.354165
35377.693,10478,5.589643
35377.771,10479,5.665010
35403.181,10480,5.801103
35403.278,10481,5.864714
35403.319,10482,5.848487
35427.639,10483,5.972248
35427.688,10484,5.836371
35453.436,10485,5.734102
35453.558,10486,5.585027
35453.593,10487,5.282116
35478.733,10488,5.097124
35478.776,10489,4.905569
35510.223,10490,4.798324
35510.304,10491,4.742502
35510.345,10492,4.514814
35510.383,10493,4.554986
35510.421,10494,4.519358
35510.458,10495,4.435624
35510.501,10496,4.404324
35514.583,10497,4.416729
35514.639,10498,4.452140
35514.691,10499,4.457838
35522.835,10500,4.416656
35522.907,10501,4.376629
35548.706,10502,4.351675
35548.767,10503,4.519790
35548.813,10504,4.460218
35573.919,10505,4.409733
35573.980,10506,4.494331
35598.848,10507,4.405766
35598.888,10508,4.493105
35598.920,10509,4.447380
35623.689,10510,4.411031
35623.753,10511,4.446010
35648.918,10512,4.359608
35648.991,10513,4.429061
35649.045,10514,4.317561
35674.923,10515,4.317922
35674.973,10516,4.303353
35699.863,10517,4.341650
35699.912,10518,4.341650
35699.945,10519,4.222793
35710.739,10520,4.332563
35710.787,10521,4.469882
35719.081,10522,4.438293
35719.232,10523,4.554914
35719.334,10524,4.613621
35723.902,10525,4.713437
35724.053,10526,4.729664
35748.985,10527,4.576406
35749.032,10528,4.508756
35749.065,10529,4.362709
35775.818,10530,4.197407
35775.866,10531,4.166683
35800.137,10532,4.081291
35800.298,10533,4.105884
35824.828,10534,4.005635
35824.876,10535,4.029003
35824.910,10536,4.028281
35849.902,10537,4.039532
35849.953,10538,4.064631
35875.724,10539,4.001236
35875.793,10540,3.751262
35875.844,10541,3.452102
35889.807,10542,3.445322
35889.845,10543,5.127343
35894.804,10544,8.449121
35894.842,10545,8.633175
35894.875,10546,5.326615
35900.719,10547,4.220990
35900.759,10548,4.463824
35925.712,10549,4.228563
35925.770,10550,4.345256
35925.812,10551,4.327730
35952.906,10552,4.233251
35953.447,10553,4.267365
35977.747,10554,4.243060
35977.797,10555,4.311864
35977.833,10556,4.360762
36006.743,10557,4.242050
36007.041,10558,4.384707
36028.735,10559,4.357300
36028.807,10560,4.458631
36028.841,10561,4.502553
36057.063,10562,4.457766
36057.118,10563,4.592417
36057.158,10564,4.691440
36057.198,10565,4.757359
36067.723,10566,4.997019
36067.772,10567,5.023199
36067.814,10568,5.097052
36072.727,10569,5.359502
36072.761,10570,5.332024
36097.799,10571,5.466747
36097.846,10572,5.393760
36097.879,10573,5.435735
36123.728,10574,5.327264
36123.766,10575,5.094167
36147.636,10576,4.872898
36147.684,10577,4.573593
36149.956,10578,4.503347
36199.891,10579,4.379730
36199.963,10580,4.203032
36199.996,10581,4.191060
36200.028,10582,4.067011
36225.735,10583,4.033330
36225.785,10584,4.048187
36225.819,10585,4.018112
36249.787,10586,3.988110
36249.828,10587,3.980248
36259.735,10588,4.054966
36259.785,10589,3.930340
36259.821,10590,4.035782
36263.704,10591,4.063116
36263.745,10592,4.033186
36272.761,10593,4.090667
36272.865,10594,4.078334
36272.977,10595,4.004626
36298.244,10596,4.146922
36298.422,10597,4.120164
36322.694,10598,4.161995
36322.753,10599,4.148652
36322.792,10600,4.098672
36348.755,10601,4.092253
36348.787,10602,4.096076
36374.739,10603,4.063188
36374.805,10604,4.087926
36374.853,10605,4.094633
36399.975,10606,4.363791
36400.018,10607,4.354271
36424.715,10608,4.378071
36424.780,10609,4.551740
36424.829,10610,4.551091
36459.195,10611,4.519069
36459.254,10612,4.409372
36464.779,10613,4.191348
36464.826,10614,4.115837
36464.861,10615,3.970728
36491.313,10616,4.015083
36491.378,10617,3.912310
36491.423,10618,3.874735
36491.467,10619,3.853675
36517.717,10620,3.869470
36517.769,10621,3.910290
36517.804,10622,3.817831
36543.483,10623,3.837664
36543.571,10624,3.790352
36567.699,10625,3.453256
36567.755,10626,3.131161
36567.799,10627,3.923705
36594.760,10628,6.412262
36594.832,10629,9.347973
36619.719,10630,7.414897
36619.786,10631,3.805426
36619.835,10632,4.261595
36625.622,10633,4.097518
36625.657,10634,4.259071
36625.691,10635,4.211759
36633.530,10636,4.175770
36633.611,10637,4.053524
36633.658,10638,4.176203
36633.703,10639,4.197695
36638.674,10640,4.153196
36638.787,10641,4.241906
36669.346,10642,4.109779
36669.421,10643,4.326288
36669.484,10644,4.342443
36689.736,10645,4.306310
36689.825,10646,4.378720
36716.763,10647,4.388817
36716.834,10648,4.643118
36716.908,10649,4.705071
36740.851,10650,4.743367
36741.011,10651,4.969974
36766.912,10652,5.028969
36768.893,10653,5.151792
36768.941,10654,5.210788
36791.598,10655,5.209201
36791.673,10656,5.292862
36816.835,10657,5.232496
36816.891,10658,5.092148
36816.930,10659,4.994856
36825.003,10660,4.742574
36825.116,10661,4.513299
36829.680,10662,4.384851
36829.744,10663,4.184208
36829.787,10664,4.147787
36839.679,10665,4.039749
36839.727,10666,3.971954
36865.716,10667,3.956520
36865.787,10668,3.888077
36865.838,10669,3.895217
36890.772,10670,3.869902
36890.863,10671,3.860022
36915.699,10672,3.879495
36915.766,10673,3.794247
36915.816,10674,3.798935
36944.782,10675,3.907766
36944.887,10676,3.955511
36967.702,10677,3.890457
36967.849,10678,3.946351
36967.891,10679,3.982268
36967.933,10680,3.939139
36967.968,10681,3.962434
36994.828,10682,3.957386
36994.896,10683,3.868316
37005.777,10684,3.952698
37006.847,10685,3.920604
37006.888,10686,3.933369
37013.794,10687,3.935533
37013.868,10688,3.870768
37038.740,10689,3.954285
37038.814,10690,3.906180
37038.868,10691,3.933153
37065.693,10692,3.921037
37090.950,10693,3.991355
37091.043,10694,4.197407
37091.108,10695,4.195243
37091.357,10696,4.216303
37115.687,10697,4.471252
37115.743,10698,4.490509
37141.916,10699,4.485388
37142.004,10700,4.338693
37142.047,10701,4.254671
37167.725,10702,4.073357
37167.778,10703,3.988542
37192.873,10704,3.957530
37192.977,10705,3.846751
37193.050,10706,3.918584
37193.118,10707,3.868027
37193.187,10708,3.838169
37195.930,10709,3.893919
37196.044,10710,3.873220
37220.696,10711,3.862834
37220.754,10712,3.800521
37220.796,10713,3.472152
37246.127,10714,3.078872
37246.190,10715,3.942601
37270.684,10716,6.491379
37270.735,10717,9.493658
37270.772,10718,7.529642
37299.234,10719,3.787756
37299.398,10720,4.220269
37322.698,10721,4.173679
37322.787,10722,4.211975
37322.839,10723,4.223875
37348.712,10724,4.220125
37348.765,10725,4.158173
37374.264,10726,4.258277
37374.325,10727,4.253950
37374.369,10728,4.269240
37382.893,10729,4.314965
37382.973,10730,4.274216
37388.733,10731,4.355281
37388.801,10732,4.367181
37388.847,10733,4.402232
37395.688,10734,4.484595
37395.739,10735,4.486975
37403.644,10736,4.567679
37403.701,10737,4.728582
37429.688,10738,4.816138
37429.750,10739,5.011227
37429.794,10740,5.118616
37455.661,10741,5.238266
37455.715,10742,5.325677
37483.689,10743,5.359070
37484.171,10744,5.376235
37484.220,10745,5.396212
37505.399,10746,5.344862
37505.454,10747,4.992187
37529.675,10748,4.800776
37529.733,10749,4.705864
37557.648,10750,4.406127
37559.016,10751,4.338909
37559.086,10752,4.200219
37571.733,10753,4.141296
37571.791,10754,4.130550
37576.603,10755,4.033330
37578.924,10756,4.102495
37578.964,10757,4.006717
37583.675,10758,4.020132
37583.734,10759,4.072204
37613.680,10760,4.024243
37613.801,10761,4.047682
37613.855,10762,4.041624
37633.910,10763,4.045014
37634.056,10764,4.081940
37658.955,10765,4.007150
37659.031,10766,4.066073
37659.092,10767,4.137474
37683.739,10768,4.048187
37683.821,10769,4.086628
37708.684,10770,4.091532
37708.773,10771,4.118578
37708.861,10772,4.077252
37734.924,10773,4.029940
37735.050,10774,4.094633
37735.137,10775,4.041552
37735.220,10776,4.011189
37772.724,10777,4.039388
37772.785,10778,3.972387
37772.829,10779,4.017752
37779.787,10780,3.949308
37779.941,10781,4.010540
37780.065,10782,4.055543
37806.049,10783,4.137474
37806.133,10784,4.216303
37830.693,10785,4.192719
37830.750,10786,4.366893
37830.788,10787,4.504789
37858.774,10788,4.477743
37858.869,10789,4.393578
37882.684,10790,4.209235
37882.736,10791,4.054101
37882.774,10792,3.942817
37882.811,10793,3.859300
37882.848,10794,3.892837
37909.714,10795,3.797636
37909.809,10796,3.813575
37933.773,10797,3.775279
37933.846,10798,3.697748
37933.904,10799,3.845958
37959.991,10800,3.687795
37960.056,10801,3.777947
37967.646,10802,3.571463
37967.687,10803,3.034734
37967.722,10804,3.188930
37974.589,10805,4.798468
37974.644,10806,8.309349
37981.117,10807,8.723616
37981.181,10808,5.199825
37981.221,10809,3.852521
38007.620,10810,4.175121
38008.142,10811,4.076170
38030.931,10812,4.166683
38031.137,10813,4.062179
38031.235,10814,4.068453
38059.970,10815,4.051216
38060.090,10816,4.007727
38083.868,10817,4.068093
38084.036,10818,4.048908
38084.161,10819,4.134300
38108.793,10820,4.051000
38108.845,10821,4.140719
38108.886,10822,4.199570
38108.924,10823,4.195459
38135.042,10824,4.325711
38135.205,10825,4.354199
38135.343,10826,4.465699
38149.853,10827,4.607346
38150.017,10828,4.670452
38157.970,10829,4.865181
38158.031,10830,4.938889
38158.077,10831,5.058467
38170.698,10832,5.189079
38170.784,10833,5.179848
38196.741,10834,5.204080
38196.825,10835,5.124747
38220.710,10836,4.981441
38222.617,10837,4.737886
38222.652,10838,4.509549
38247.730,10839,4.417522
38247.798,10840,4.201734
38272.761,10841,4.063765
38272.834,10842,3.976354
38272.887,10843,3.903655
38299.697,10844,3.931278
38299.747,10845,3.877403
38323.732,10846,3.829947
38323.801,10847,3.854613
38323.856,10848,3.845237
38339.800,10849,3.820932
38339.852,10850,3.811844
38339.889,10851,3.880504
38339.924,10852,3.830885
38339.959,10853,3.921541
38343.712,10854,3.956520
38343.746,10855,3.850069
38358.198,10856,3.931999
38358.251,10857,3.990634
38381.696,10858,3.872571
38383.587,10859,3.936254
38383.640,10860,3.895938
38413.069,10861,3.931278
38413.597,10862,3.891972
38435.784,10863,3.825259
38465.610,10864,3.911372
38465.685,10865,3.839251
38465.730,10866,3.820211
38465.774,10867,3.909641
38486.150,10868,3.859084
38486.218,10869,3.908127
38486.260,10870,3.843578
38511.864,10871,3.829586
38511.957,10872,3.889808
38528.696,10873,3.829731
38528.744,10874,3.803623
38528.779,10875,3.875600
38528.812,10876,3.968853
38528.846,10877,4.107687
38544.674,10878,4.069030
38544.723,10879,4.246449
38544.757,10880,4.303065
38569.728,10881,4.250632
38569.811,10882,4.232386
38593.720,10883,3.993807
38593.802,10884,3.904160
38593.844,10885,3.840621
38618.670,10886,3.706042
38618.726,10887,3.729770
38643.755,10888,3.676400
38643.822,10889,3.688372
38643.867,10890,3.703229
38669.776,10891,3.649427
38669.831,10892,3.656855
38694.697,10893,3.584373
38694.761,10894,3.659596
38694.806,10895,3.306632
38716.048,10896,2.910324
38719.941,10897,3.797781
38720.687,10898,6.158322
38720.745,10899,9.087253
38720.791,10900,7.288468
38728.641,10901,3.580911
38728.682,10902,4.155288
38732.572,10903,3.927167
38732.640,10904,4.031166
38760.062,10905,4.035277
38760.812,10906,3.931422
38761.212,10907,4.018906
38783.821,10908,3.983278
38783.979,10909,4.024964
38810.586,10910,4.053380
38811.195,10911,4.038018
38811.238,10912,4.110500
38834.046,10913,4.118578
38834.159,10914,4.146561
38858.914,10915,4.171659
38858.971,10916,4.219404
38859.014,10917,4.380956
38886.052,10918,4.345400
38886.223,10919,4.521233
38907.658,10920,4.653360
38907.750,10921,4.797242
38907.928,10922,4.932687
38910.697,10923,4.993918
38910.774,10924,5.126045
38912.588,10925,5.168020
38912.647,10926,5.195570
38917.650,10927,5.156047
38943.068,10928,5.047721
38943.188,10929,4.970334
38967.719,10930,4.727645
38967.768,10931,4.372951
38967.803,10932,4.307969
38993.767,10933,4.028065
38993.815,10934,4.043715
39018.743,10935,3.965103
39018.811,10936,3.880793
39018.858,10937,3.900410
39018.907,10938,3.769293
39044.746,10939,3.826485
39071.074,10940,3.843217
39071.188,10941,3.770302
39071.235,10942,3.785159
39071.279,10943,3.719889
39096.744,10944,3.829226
39100.634,10945,3.809104
39100.669,10946,3.834130
39103.360,10947,3.903872
39103.425,10948,3.825187
39126.810,10949,3.821437
39129.642,10950,3.901996
39129.695,10951,3.843939
39157.701,10952,3.932504
39157.757,10953,3.833914
39157.798,10954,3.911805
39179.759,10955,3.891034
39179.877,10956,3.858219
39204.923,10957,3.800016
39205.029,10958,3.835861
39205.868,10959,3.859589
39230.735,10960,3.789487
39230.801,10961,3.783717
39257.684,10962,3.783068
39257.801,10963,3.819489
39257.900,10964,3.995250
39257.998,10965,4.099105
39258.053,10966,4.051360
39263.653,10967,4.260513
39263.710,10968,4.279337
39267.737,10969,4.204763
39267.812,10970,4.196613
39267.874,10971,3.963949
39282.905,10972,3.894135
39283.019,10973,3.759989
39308.696,10974,3.654475
39309.952,10975,3.775062
39310.064,10976,3.635868
39333.677,10977,3.665510
39359.378,10978,3.635146
39359.458,10979,3.622165
39359.510,10980,3.641926
39384.453,10981,3.562231
39409.348,10982,3.652095
39409.707,10983,3.379908
39409.775,10984,2.960088
39409.819,10985,3.298771
39436.038,10986,5.171770
39442.713,10987,8.633897
39442.795,10988,7.953357
39442.864,10989,4.195171
39442.935,10990,3.938706
39449.684,10991,4.034628
39449.754,10992,3.906684
39449.808,10993,4.012920
39460.552,10994,3.889015
39460.653,10995,3.991572
39483.767,10996,3.890313
39483.829,10997,3.976859
39483.869,10998,3.929403
39508.892,10999,3.982556
39509.030,11000,4.031527
39534.706,11001,3.990922
39534.769,11002,4.094201
39534.807,11003,4.140214
39559.691,11004,4.173751
39559.742,11005,4.222000
39585.855,11006,4.237434
39585.913,11007,4.441178
39585.966,11008,4.494836
39611.678,11009,4.613981
39611.741,11010,4.773947
39620.663,11011,4.892371
39620.737,11012,5.038056
39620.781,11013,5.031493
39628.728,11014,5.070367
39628.797,11015,5.088253
39635.363,11016,4.899655
39635.479,11017,4.858401
39665.668,11018,4.623501
39665.718,11019,4.360834
39665.753,11020,4.219692
39691.676,11021,3.997990
39691.728,11022,3.958828
39715.704,11023,3.829947
39715.778,11024,3.802757
39715.834,11025,3.741165
39741.609,11026,3.691113
39741.734,11027,3.729626
39765.666,11028,3.659740
39765.715,11029,3.607884
39765.750,11030,3.711595
39792.760,11031,3.645748
39792.799,11032,3.734242
39810.690,11033,3.685127
39810.762,11034,3.706907
39810.817,11035,3.791362
39820.253,11036,3.676184
39820.369,11037,3.776577
39820.452,11038,3.739723
39820.545,11039,3.722342
39824.795,11040,3.767922
