timestamp_ms,sample_index,raw_ecg_mv
16.349,17164,-1212.486105
21.520,17165,-1212.469877
21.619,17166,-1212.199277
21.687,17167,-1210.712417
48.151,17168,-1212.190767
48.236,17169,-1210.991961
48.363,17170,-1211.912954
75.971,17171,-1210.327649
76.069,17172,-1211.272370
98.221,17173,-1211.803978
98.332,17174,-1211.016194
98.416,17175,-1210.649600
130.815,17176,-1211.913387
131.015,17177,-1211.014679
131.213,17178,-1212.523752
131.355,17179,-1211.263571
131.494,17180,-1212.126290
157.175,17181,-1212.271254
157.262,17182,-1210.437346
157.351,17183,-1212.145835
157.415,17184,-1211.613361
157.478,17185,-1211.165558
184.218,17186,-1211.121708
184.350,17187,-1210.687175
216.279,17188,-1210.412968
216.436,17189,-1212.053375
216.549,17190,-1211.998202
231.446,17191,-1212.536229
231.542,17192,-1212.598254
231.610,17193,-1212.497644
231.680,17194,-1212.557649
249.208,17195,-1212.510121
251.148,17196,-1212.423359
251.228,17197,-1212.288347
281.720,17198,-1212.136026
281.848,17199,-1211.127694
282.037,17200,-1212.565222
301.206,17201,-1212.392924
328.980,17202,-1210.460929
329.063,17203,-1210.661932
329.126,17204,-1210.672462
329.190,17205,-1212.270100
332.109,17206,-1212.636623
332.191,17207,-1210.633949
332.263,17208,-1212.442471
332.334,17209,-1212.134728
332.404,17210,-1211.636368
358.355,17211,0.351088
358.408,17212,5.028897
358.452,17213,6.731256
384.152,17214,2.127300
418.378,17215,-1212.348497
418.555,17216,-1212.123549
418.699,17217,-1212.074651
418.750,17218,-1210.757493
444.259,17219,-1212.424513
447.348,17220,-1212.523969
447.459,17221,-1212.459925
471.503,17222,-1212.417373
471.730,17223,-1212.471897
471.828,17224,-1212.407564
497.506,17225,-1212.430571
497.597,17226,-1212.323326
497.663,17227,-1212.328303
529.444,17228,-1212.259715
529.517,17229,-1212.151821
532.186,17230,-1212.150378
532.255,17231,-1212.038374
532.317,17232,-1212.009741
556.402,17233,-1211.910213
556.481,17234,-1211.764023
582.250,17235,-1211.707696
582.446,17236,-1211.523425
582.568,17237,-1211.456352
607.398,17238,-1211.318600
607.536,17239,-1211.171688
607.657,17240,-1211.149835
630.740,17241,-1211.022036
630.818,17242,-1211.017708
634.106,17243,-1211.051389
634.206,17244,-1211.167866
634.300,17245,-1211.439764
659.257,17246,-1211.640911
659.412,17247,-1211.660528
661.135,17248,-1210.314595
686.217,17249,-1212.260364
686.338,17250,-1211.016626
714.383,17251,-1212.417012
714.545,17252,-1210.761893
714.671,17253,-1212.039888
723.418,17254,-1212.462160
723.521,17255,-1210.801704
733.761,17256,-1212.149152
733.938,17257,-1212.248464
751.250,17258,-1212.076814
780.429,17259,-1212.477089
780.504,17260,-1211.123006
780.561,17261,-1212.471464
780.616,17262,-1212.117924
780.669,17263,-1212.063616
803.181,17264,-1212.464612
803.257,17265,-1212.317124
803.314,17266,-1212.113885
819.176,17267,-1211.685266
819.231,17268,-1212.083594
821.167,17269,-1212.494759
821.220,17270,-1211.731496
830.186,17271,-1212.481849
852.215,17272,-1212.055755
852.301,17273,-1211.325091
852.361,17274,-1212.231371
880.292,17275,-1210.687031
880.347,17276,-1212.503486
902.207,17277,-1211.312325
902.292,17278,-1210.337313
902.356,17279,-1211.889442
929.404,17280,-1210.813820
929.480,17281,-1212.562337
929.539,17282,-1212.292674
953.300,17283,-1212.187593
953.368,17284,-1212.258345
953.419,17285,-1210.825648
980.821,17286,-1212.556856
980.898,17287,-1212.611164
1006.182,17288,-1212.596739
1006.253,17289,-1212.577699
1006.305,17290,-1211.158995
1038.065,17291,-1212.571352
1062.162,17292,-1212.113452
1062.223,17293,-1212.234400
1062.268,17294,-1212.566809
1062.313,17295,-1211.471353
1090.424,17296,-1212.548274
1090.717,17297,-1212.598542
1090.826,17298,-1211.101874
1114.531,17299,-1212.515098
1116.253,17300,-1212.582748
1116.318,17301,-1212.488052
1133.248,17302,-1212.494399
1133.386,17303,-1212.409872
1133.495,17304,-1212.471969
1141.171,17305,-1212.577266
1141.299,17306,-1212.485528
1167.638,17307,-1211.002923
1191.280,17308,-1210.372580
1191.420,17309,-1211.940721
1191.530,17310,-1210.948688
1223.953,17311,-1212.223366
1224.199,17312,-1212.555125
1233.199,17313,-1211.569439
1233.284,17314,-1212.594143
1233.348,17315,-1212.620251
1233.411,17316,-1212.189685
1233.474,17317,-1211.122068
1233.538,17318,2.571785
1258.198,17319,6.368556
1258.286,17320,5.636594
1285.089,17321,-1210.654937
1285.180,17322,-1211.881653
1285.244,17323,-1212.234040
1309.206,17324,-1212.107250
1309.299,17325,-1212.290871
1339.212,17326,-1212.364868
1339.313,17327,-1212.292314
1339.394,17328,-1212.343520
1346.586,17329,-1212.323038
1346.693,17330,-1212.331909
1371.628,17331,-1212.288996
1371.732,17332,-1212.187737
1371.797,17333,-1212.197762
1396.194,17334,-1212.132276
1396.281,17335,-1212.153263
1422.199,17336,-1212.036715
1422.287,17337,-1211.882158
1422.354,17338,-1211.729116
1457.220,17339,-1211.746137
1457.313,17340,-1211.697455
1463.145,17341,-1211.615020
1463.224,17342,-1211.481667
1463.289,17343,-1211.391803
1488.165,17344,-1211.216548
1488.244,17345,-1211.130867
1514.184,17346,-1211.000976
1514.257,17347,-1210.858392
1514.309,17348,-1210.849665
1557.295,17349,-1210.756412
1557.399,17350,-1210.928999
1557.467,17351,-1211.102091
1557.532,17352,-1211.359781
1560.139,17353,-1211.665361
1567.189,17354,-1211.922835
1567.277,17355,-1212.169130
1591.283,17356,-1212.320658
1591.444,17357,-1212.343520
1617.687,17358,-1212.429345
1617.783,17359,-1212.410233
1617.870,17360,-1212.145186
1646.337,17361,-1212.054601
1646.483,17362,-1212.427470
1651.192,17363,-1210.932605
1651.275,17364,-1212.104293
1651.337,17365,-1211.852733
1683.455,17366,-1211.397645
1683.540,17367,-1211.625694
1683.602,17368,-1210.317552
1683.662,17369,-1212.174034
1703.309,17370,-1212.517982
1735.156,17371,-1212.508246
1735.239,17372,-1212.457256
1735.301,17373,-1211.720029
1735.360,17374,-1212.461006
1741.123,17375,-1212.519064
1741.193,17376,-1212.576401
1741.246,17377,-1212.497500
1769.308,17378,-1211.022252
1769.481,17379,-1212.396097
1769.615,17380,-1212.274283
1792.208,17381,-1210.916233
1792.299,17382,-1211.582204
1792.362,17383,-1211.397212
1823.798,17384,-1212.553178
1823.918,17385,-1211.698897
1824.001,17386,-1210.919623
1824.072,17387,-1212.560967
1850.369,17388,-1212.618881
1850.484,17389,-1212.535652
1850.573,17390,-1211.440990
1879.997,17391,-1211.155821
1881.444,17392,-1212.465766
1881.528,17393,-1212.453506
1902.166,17394,-1212.497788
1902.264,17395,-1211.158922
1902.359,17396,-1212.201008
1902.558,17397,-1211.177602
1924.480,17398,-1210.441817
1924.669,17399,-1212.205696
1924.861,17400,-1210.624501
1931.533,17401,-1210.948255
1935.100,17402,-1212.678814
1935.228,17403,-1211.044826
1935.317,17404,-1210.930297
1958.218,17405,-1212.651119
1983.177,17406,-1212.184781
1983.298,17407,-1210.990014
1983.382,17408,3.442149
1983.462,17409,6.589465
2008.980,17410,4.330976
2023.786,17411,0.492735
2024.257,17412,-1212.292747
2024.327,17413,-1211.031916
2024.417,17414,-1212.330250
2031.062,17415,-1212.253585
2056.277,17416,-1212.377201
2056.470,17417,-1212.379004
2081.144,17418,-1212.396313
2081.226,17419,-1212.336957
2081.288,17420,-1212.287410
2107.385,17421,-1212.365589
2107.537,17422,-1212.279043
2107.585,17423,-1212.218317
2107.631,17424,-1212.178722
2130.352,17425,-1212.079844
2130.438,17426,-1212.045442
2130.498,17427,-1211.970219
2130.556,17428,-1211.645166
2130.613,17429,-1211.777077
2153.625,17430,-1211.645888
2153.781,17431,-1211.702143
2153.904,17432,-1211.462194
2179.973,17433,-1211.338650
2180.053,17434,-1211.188637
2181.063,17435,-1210.983667
2181.129,17436,-1210.897265
2207.154,17437,-1210.748334
2207.241,17438,-1210.715807
2207.306,17439,-1210.721721
2229.208,17440,-1210.820167
2231.139,17441,-1211.119039
2231.208,17442,-1211.432119
2254.231,17443,-1211.785227
2254.320,17444,-1212.011328
2256.051,17445,-1212.210889
2256.106,17446,-1212.443409
2281.765,17447,-1212.469517
2306.236,17448,-1210.844761
2306.345,17449,-1210.988860
2306.428,17450,-1212.510482
2339.167,17451,-1211.121852
2339.330,17452,-1212.530099
2363.225,17453,-1211.814436
2363.351,17454,-1210.741699
2363.448,17455,-1211.723274
2390.179,17456,-1210.743862
2390.275,17457,-1211.646681
2416.254,17458,-1210.291227
2416.379,17459,-1212.180742
2416.476,17460,-1212.557072
2416.571,17461,-1212.611813
2416.653,17462,-1212.528584
2456.450,17463,-1212.564357
2456.708,17464,-1212.577194
2456.887,17465,-1212.541855
2457.065,17466,-1211.748805
2458.528,17467,-1212.555341
2483.305,17468,-1212.122972
2483.402,17469,-1211.032998
2483.484,17470,-1212.604456
2483.558,17471,-1212.637632
2511.200,17472,-1212.142084
2534.171,17473,-1212.264331
2534.257,17474,-1212.175549
2537.050,17475,-1212.518271
2537.127,17476,-1211.044754
2565.026,17477,-1212.552457
2570.230,17478,-1212.476080
2570.368,17479,-1212.617727
2570.485,17480,-1211.203566
2570.772,17481,-1211.410555
2598.267,17482,-1212.226683
2598.352,17483,-1211.258018
2598.416,17484,-1210.585556
2622.726,17485,-1210.975950
2622.805,17486,-1210.597311
2653.268,17487,-1210.841948
2653.389,17488,-1210.526704
2653.477,17489,-1212.373523
2662.200,17490,-1212.512357
2662.282,17491,-1212.106456
2687.289,17492,-1210.824206
2687.386,17493,3.888438
2687.462,17494,6.483085
2713.667,17495,3.305983
2713.781,17496,-1212.387298
2737.142,17497,-1211.317806
2737.211,17498,-1212.495408
2737.264,17499,-1212.319359
2757.394,17500,-1212.401001
2757.473,17501,-1212.466560
2764.202,17502,-1212.438721
2764.323,17503,-1212.448601
2788.390,17504,-1212.434466
2814.270,17505,-1212.423936
2814.446,17506,-1212.403886
2814.575,17507,-1212.272120
2814.703,17508,-1212.252935
2840.502,17509,-1212.216442
2840.657,17510,-1212.060515
2840.738,17511,-1212.110207
2869.204,17512,-1212.024887
2869.293,17513,-1211.887495
2869.364,17514,-1211.864777
2881.076,17515,-1211.691108
2881.155,17516,-1211.597350
2881.217,17517,-1211.453179
2881.275,17518,-1211.293429
2902.207,17519,-1211.219505
2902.301,17520,-1210.913853
2902.403,17521,-1210.879163
2902.470,17522,-1210.829831
2902.535,17523,-1210.686886
2930.493,17524,-1210.817715
2930.568,17525,-1210.902169
2953.444,17526,-1211.242872
2954.221,17527,-1211.617255
2954.374,17528,-1211.847035
2980.715,17529,-1212.165668
2980.785,17530,-1212.336164
3000.212,17531,-1212.462016
3000.338,17532,-1212.513511
3000.439,17533,-1212.489206
3030.976,17534,-1211.108942
3031.063,17535,-1210.535287
3031.131,17536,-1210.700373
3053.824,17537,-1210.867190
3054.000,17538,-1212.299165
3080.637,17539,-1210.680828
3080.723,17540,-1212.243488
3080.783,17541,-1212.328663
3108.225,17542,-1212.235049
3108.295,17543,-1212.506587
3113.150,17544,-1212.232164
3113.222,17545,-1212.599985
3113.279,17546,-1211.936971
3113.334,17547,-1210.462083
3113.388,17548,-1210.374816
3139.267,17549,-1212.022579
3139.396,17550,-1212.561111
3141.024,17551,-1212.568179
3141.074,17552,-1212.648523
3166.374,17553,-1212.602220
3198.855,17554,-1211.628362
3199.018,17555,-1212.320369
3199.148,17556,-1212.583829
3199.256,17557,-1212.264908
3203.253,17558,-1212.628329
3203.376,17559,-1212.607197
3203.431,17560,-1212.619890
3230.514,17561,-1212.582964
3230.600,17562,-1212.534426
3231.015,17563,-1212.453794
3257.189,17564,-1212.588517
3257.293,17565,-1212.347703
3281.109,17566,-1211.398583
3281.188,17567,-1210.630343
3281.290,17568,-1210.509323
3309.238,17569,-1210.601783
3309.345,17570,-1211.542249
3309.411,17571,-1211.032133
3309.463,17572,-1210.922147
3317.238,17573,-1211.895212
3317.446,17574,-1211.651802
3317.567,17575,-1212.332846
3343.199,17576,-1212.011833
3367.234,17577,-1210.101908
3367.342,17578,4.210028
3367.420,17579,6.551457
3367.496,17580,2.944582
3398.421,17581,-1212.331692
3404.888,17582,-1211.089397
3411.523,17583,-1212.463891
3414.798,17584,-1212.373739
3414.878,17585,-1212.431653
3421.484,17586,-1212.502404
3422.160,17587,-1212.485383
3422.213,17588,-1212.446582
3422.264,17589,-1212.523319
3422.314,17590,-1212.454299
3444.478,17591,-1212.372585
3444.690,17592,-1212.347487
3468.457,17593,-1212.286688
3468.821,17594,-1212.231515
3469.501,17595,-1212.125280
3493.441,17596,-1212.072920
3493.587,17597,-1211.995101
3493.716,17598,-1211.899539
3517.256,17599,-1211.858863
3517.380,17600,-1211.664279
3517.482,17601,-1211.599153
3517.580,17602,-1211.476330
3549.236,17603,-1211.260037
3554.297,17604,-1211.178107
3554.410,17605,-1210.969243
3570.189,17606,-1210.861349
3570.277,17607,0.131838
3597.868,17608,-1210.786198
3597.959,17609,-1210.954746
3598.021,17610,-1211.167144
3625.384,17611,-1211.432624
3625.530,17612,-1211.638315
3650.185,17613,-1211.940865
3650.286,17614,-1212.184492
3650.363,17615,-1212.360613
3676.198,17616,-1212.414632
3676.298,17617,-1212.517189
3700.201,17618,-1212.488629
3700.290,17619,-1212.325778
3700.361,17620,-1212.178722
3717.192,17621,-1212.380230
3717.277,17622,-1210.774154
3721.103,17623,-1212.619674
3721.197,17624,-1212.286833
3721.289,17625,-1211.293574
3748.802,17626,-1212.560895
3748.886,17627,-1212.292747
3748.963,17628,-1212.537311
3749.027,17629,-1211.312325
3774.888,17630,-1212.203604
3799.189,17631,-1212.558587
3799.268,17632,-1211.086801
3799.326,17633,-1212.212403
3821.282,17634,-1212.291160
3821.380,17635,-1210.745593
3831.029,17636,-1212.596162
3831.108,17637,-1210.889188
3831.169,17638,-1210.381451
3831.227,17639,-1212.221635
3857.559,17640,-1211.274389
3857.713,17641,-1212.372297
3857.837,17642,-1211.997625
3880.779,17643,-1212.470310
3880.857,17644,-1212.635180
3904.228,17645,-1211.273235
3904.330,17646,-1212.661432
3906.160,17647,-1211.668245
3933.569,17648,-1212.380663
3933.734,17649,-1212.271471
3938.233,17650,-1212.266711
3938.376,17651,-1212.581666
3938.446,17652,-1212.653210
3963.472,17653,-1212.579142
3963.623,17654,-1212.531397
3963.691,17655,-1212.528224
3963.871,17656,-1212.564861
3989.188,17657,-1212.236347
4014.314,17658,-1212.574959
4014.406,17659,-1211.882086
4016.138,17660,-1210.829110
4016.212,17661,-1211.797199
4043.058,17662,-1210.641666
4048.259,17663,-1210.900294
4048.393,17664,-1211.332375
4048.475,17665,-1210.997586
4048.603,17666,-1212.695113
4074.540,17667,-1211.514698
4079.804,17668,-1211.011939
4082.378,17669,-1211.239338
4101.339,17670,2.285462
4101.457,17671,6.144691
4130.597,17672,6.176424
4130.676,17673,-1210.070535
4130.735,17674,-1212.128742
4154.171,17675,-1212.203460
4154.249,17676,-1212.212908
4159.171,17677,-1212.335443
4159.260,17678,-1212.408430
4162.152,17679,-1212.465262
4186.171,17680,-1212.495192
4186.246,17681,-1212.432518
4186.300,17682,-1212.461078
4186.354,17683,-1212.395087
4213.181,17684,-1212.341645
4237.208,17685,-1212.337895
4237.288,17686,-1212.223943
4237.354,17687,-1212.240675
4237.418,17688,-1212.102995
4257.445,17689,-1212.075877
4261.138,17690,-1212.017098
4261.261,17691,-1211.881148
4261.378,17692,-1211.846386
4261.492,17693,-1211.678631
4294.703,17694,-1211.566049
4294.800,17695,-1211.477195
4294.861,17696,-1211.298478
4313.277,17697,-1211.171832
4313.432,17698,-1211.025714
4315.102,17699,-1210.933687
4315.180,17700,-1210.919983
4316.331,17701,-1210.917820
4347.250,17702,-1211.074396
4347.349,17703,-1211.285207
4347.415,17704,-1211.557034
4347.499,17705,-1211.872277
4353.058,17706,-1212.051500
4353.176,17707,-1212.293828
4353.252,17708,-1212.398693
4378.466,17709,-1212.165019
4378.999,17710,-1210.688978
4379.231,17711,-1212.450549
4404.193,17712,-1212.232237
4404.303,17713,-1211.870547
4429.850,17714,-1212.282217
4431.228,17715,-1210.569328
4431.369,17716,-1212.104798
4447.150,17717,-1211.943245
4447.273,17718,-1210.695108
4455.549,17719,-1212.526421
4455.634,17720,-1212.207210
4455.701,17721,-1212.135449
4455.764,17722,-1212.493100
4455.827,17723,-1210.718548
4483.320,17724,-1212.527935
4483.398,17725,-1211.656922
4483.458,17726,-1211.977864
4483.516,17727,-1210.937221
4507.291,17728,-1210.383687
4537.149,17729,-1210.672390
4537.228,17730,-1211.858646
4537.287,17731,-1210.818436
4537.345,17732,-1211.099062
4545.168,17733,-1210.806031
4545.262,17734,-1212.614337
4545.340,17735,-1211.909853
4571.370,17736,-1212.226106
4571.453,17737,-1211.583286
4596.309,17738,-1210.814830
4596.393,17739,-1212.300175
4596.455,17740,-1210.603081
4628.887,17741,-1211.370672
4629.363,17742,-1212.035849
4629.431,17743,-1210.871446
4634.081,17744,-1211.297324
4634.143,17745,-1211.047062
4634.195,17746,-1212.344746
4659.177,17747,-1212.422493
4659.299,17748,-1212.317484
4685.204,17749,-1212.704705
4685.319,17750,-1211.341751
4685.379,17751,-1212.472762
4685.438,17752,-1212.458049
4712.157,17753,-1210.841227
4721.143,17754,-1212.219904
4721.215,17755,-1210.653710
4721.272,17756,-1212.368546
4721.327,17757,-1211.981614
4748.024,17758,-1210.563919
4748.196,17759,-1212.393284
4748.334,17760,-1212.206778
4772.485,17761,-1212.738386
4772.633,17762,-1212.769110
4791.225,17763,-1212.525844
4791.318,17764,-1212.376985
4791.368,17765,-1211.593383
4819.215,17766,-1210.979628
4819.304,17767,-1212.499231
4819.366,17768,-1211.281169
4844.153,17769,-1212.749998
4844.222,17770,-1212.799329
4846.047,17771,-1212.754109
4846.118,17772,-1212.750214
4871.175,17773,-1212.777692
4871.269,17774,-1212.646143
4871.343,17775,-1211.847251
4897.389,17776,-1212.341357
4897.606,17777,-1211.174933
4897.676,17778,-1211.482893
4914.282,17779,-1211.572179
4914.380,17780,-1210.756267
4914.455,17781,-1211.065164
4920.844,17782,-1211.190295
4920.941,17783,-1211.103100
4921.004,17784,-1211.282827
4921.061,17785,-1211.250517
4946.402,17786,-1212.295343
4946.511,17787,-1211.653965
4946.579,17788,0.375105
4972.413,17789,5.020747
4972.657,17790,7.226010
4997.185,17791,3.189940
4997.277,17792,-1212.382466
4997.340,17793,-1212.351381
5023.263,17794,-1212.331043
5023.467,17795,-1212.544667
5042.734,17796,-1212.650758
5042.814,17797,-1212.716750
5042.875,17798,-1212.774952
5050.077,17799,-1212.723890
5050.135,17800,-1212.738026
5050.191,17801,-1212.693599
5078.868,17802,-1212.689127
5078.981,17803,-1212.672900
5101.124,17804,-1212.572506
5101.201,17805,-1212.571497
5101.264,17806,-1212.491514
5130.896,17807,-1212.432374
5132.401,17808,-1212.390904
5136.687,17809,-1212.269019
5136.757,17810,-1212.219615
5137.152,17811,-1212.114318
5162.164,17812,-1211.990773
5162.241,17813,-1211.980388
5162.296,17814,-1211.869825
5162.351,17815,-1211.704234
5188.127,17816,-1211.650503
5188.221,17817,-1211.463708
5188.286,17818,-1211.398511
5214.237,17819,-1211.322999
5214.287,17820,-1211.309512
5216.308,17821,-1211.388918
5234.156,17822,-1211.466305
5234.242,17823,-1211.793953
5237.100,17824,-1212.007578
5237.196,17825,-1212.250988
5239.152,17826,-1212.511131
5243.119,17827,-1212.302122
5243.200,17828,-1210.524901
5266.418,17829,-1210.594138
5266.491,17830,-1210.597744
5292.271,17831,-1210.654504
5292.355,17832,-1212.114101
5292.414,17833,-1211.001986
5317.686,17834,-1210.941331
5317.742,17835,-1210.762109
5345.285,17836,-1210.725183
5345.440,17837,-1212.602004
5345.568,17838,-1211.247993
5353.237,17839,-1212.151100
5353.294,17840,-1212.673405
5380.706,17841,-1211.289751
5402.155,17842,-1212.833515
5402.223,17843,-1211.171183
5402.278,17844,-1211.896366
5402.359,17845,-1211.956443
5429.873,17846,-1211.072088
5446.466,17847,-1212.331115
5446.555,17848,-1210.737011
5446.629,17849,-1212.525627
5472.669,17850,-1212.813320
5472.765,17851,-1210.840505
5472.839,17852,-1212.607846
5498.582,17853,-1210.998812
5498.665,17854,-1212.579719
5531.163,17855,-1212.435980
5531.245,17856,-1210.879091
5531.310,17857,-1212.760311
5538.646,17858,-1211.340020
5538.721,17859,-1212.607990
5538.782,17860,-1212.648018
5565.690,17861,-1211.483903
5565.788,17862,-1213.039205
5565.853,17863,-1211.685410
5565.961,17864,-1213.053125
5589.100,17865,-1212.792045
5589.149,17866,-1211.433922
5619.413,17867,-1212.636839
5621.528,17868,-1211.585089
5621.595,17869,-1212.695474
5631.158,17870,-1212.909531
5631.381,17871,-1210.992394
5631.512,17872,-1212.264547
5654.188,17873,-1211.703152
5654.265,17874,-1213.083055
5679.856,17875,-1212.842890
5679.930,17876,-1211.277923
5679.987,17877,-1212.021858
5704.378,17878,-1210.903179
5704.454,17879,-1211.578310
5706.172,17880,-1213.095749
5706.249,17881,-1211.722625
5719.299,17882,-1213.085508
5721.170,17883,-1211.441567
5721.212,17884,-1211.782919
5728.237,17885,-1213.102240
5729.286,17886,-1211.735679
5752.514,17887,-1213.075843
5752.606,17888,-1211.478277
5752.676,17889,-1212.723241
5777.588,17890,-1212.782741
5778.428,17891,-1212.673621
5802.128,17892,-1213.035311
5802.217,17893,-1211.613794
5802.288,17894,-1212.980354
5829.361,17895,-1212.952659
5829.507,17896,-1212.776538
5838.006,17897,-1212.751512
5838.084,17898,-1211.807945
5838.141,17899,-1213.041369
5859.454,17900,-1212.221563
5859.519,17901,-1211.019656
5861.648,17902,-1211.704234
5861.843,17903,-1211.496957
5889.755,17904,-1211.309080
5911.164,17905,-1212.966867
5911.258,17906,-1211.392524
5911.329,17907,-1212.859911
5911.400,17908,-1211.918075
5923.896,17909,-1210.364575
5948.109,17910,5.029979
5948.176,17911,6.554053
5948.229,17912,1.287227
5948.282,17913,-1211.820134
5980.411,17914,-1211.784001
5980.494,17915,-1212.632728
5980.552,17916,-1212.661937
5999.146,17917,-1212.792982
6029.334,17918,-1212.861570
6029.407,17919,-1212.889048
6029.464,17920,-1212.871595
6029.519,17921,-1212.929148
6054.289,17922,-1212.870874
6054.463,17923,-1212.815556
6082.171,17924,-1212.815340
6082.288,17925,-1212.728433
6082.371,17926,-1212.718553
6108.392,17927,-1212.605466
6108.538,17928,-1212.557721
6129.750,17929,-1212.532407
6129.820,17930,-1212.421916
6129.876,17931,-1212.380230
6134.093,17932,-1212.235770
6134.163,17933,-1212.138983
6134.226,17934,-1212.067150
6159.446,17935,-1211.873287
6159.608,17936,-1211.831745
6184.424,17937,-1211.644950
6184.567,17938,-1211.579896
6184.687,17939,-1211.504674
6211.365,17940,-1211.368364
6211.420,17941,-1211.395409
6219.380,17942,-1211.438394
6222.185,17943,-1211.619275
6222.243,17944,-1211.920599
6229.658,17945,-1212.129319
6229.724,17946,-1212.409511
6229.779,17947,-1212.601644
6253.291,17948,-1212.682131
6253.378,17949,-1210.812739
6279.678,17950,-1210.727996
6279.797,17951,-1210.731025
6279.893,17952,-1210.769321
6305.219,17953,-1211.459237
6305.278,17954,-1210.756051
6330.295,17955,-1211.087306
6330.364,17956,-1211.058890
6330.421,17957,-1212.559308
6330.476,17958,-1212.553106
6330.531,17959,-1210.856156
6342.544,17960,-1212.254450
6342.642,17961,-1212.657971
6367.504,17962,-1212.554837
6367.682,17963,-1212.027627
6367.824,17964,-1211.163899
6394.381,17965,-1212.949126
6394.471,17966,-1211.967117
6418.518,17967,-1210.811801
6418.618,17968,-1210.747180
6418.661,17969,-1212.597244
6438.196,17970,-1212.967949
6438.375,17971,-1212.769398
6444.560,17972,-1212.607269
6444.710,17973,-1212.861065
6444.825,17974,-1211.180054
6496.150,17975,-1213.021464
6496.266,17976,-1211.336630
6496.349,17977,-1211.697815
6496.429,17978,-1211.957742
6520.356,17979,-1211.023911
6520.451,17980,-1212.655014
6520.515,17981,-1211.327038
6543.650,17982,-1211.398438
6543.791,17983,-1213.042739
6544.069,17984,-1212.043638
6544.139,17985,-1213.052836
6544.191,17986,-1211.053697
6546.094,17987,-1212.659774
6546.180,17988,-1212.802358
6572.104,17989,-1211.475609
6572.203,17990,-1213.008914
6572.324,17991,-1211.333601
6597.117,17992,-1212.643690
6597.248,17993,-1212.948188
6623.432,17994,-1212.915805
6623.529,17995,-1212.992975
6623.751,17996,-1211.227871
6646.821,17997,-1211.199671
6648.831,17998,-1210.799108
6648.906,17999,-1211.463059
6648.982,18000,-1212.734347
6668.194,18001,-1211.093292
6668.298,18002,-1211.579752
6668.370,18003,-1212.871667
6696.902,18004,-1211.364902
6697.000,18005,-1212.819307
6697.062,18006,-1212.708456
6719.247,18007,-1212.365950
6719.343,18008,-1211.251022
6744.111,18009,3.252685
6746.104,18010,6.316340
6746.193,18011,2.464252
6756.169,18012,-1212.605466
6756.252,18013,-1211.211355
6781.644,18014,-1211.730486
6783.361,18015,-1212.688189
6783.420,18016,-1212.767091
6808.263,18017,-1212.899866
6808.345,18018,-1212.842169
6808.408,18019,-1212.904194
6833.264,18020,-1212.888688
6833.396,18021,-1212.833154
6851.180,18022,-1212.847434
6851.255,18023,-1212.748483
6851.307,18024,-1212.751945
6851.358,18025,-1212.663524
6851.408,18026,-1212.582531
6859.101,18027,-1212.324047
6859.183,18028,-1211.793521
6859.248,18029,-1212.418959
6859.311,18030,-1212.311715
6884.171,18031,-1212.205696
6911.246,18032,-1212.138262
6911.388,18033,-1211.970796
6911.475,18034,-1211.859512
6911.581,18035,-1211.696878
6934.907,18036,-1211.561433
6952.321,18037,-1211.480946
6952.462,18038,-1211.317951
6952.574,18039,-1211.301507
6952.674,18040,-1211.269557
6958.131,18041,-1211.385168
6958.207,18042,-1211.660601
6958.264,18043,-1211.872205
6984.200,18044,-1212.238583
6984.328,18045,-1212.489350
6987.213,18046,-1212.679030
7012.314,18047,-1211.433850
7012.426,18048,-1211.216187
7039.324,18049,-1210.755186
7039.507,18050,-1210.824422
7039.657,18051,-1210.816633
7049.174,18052,-1210.855435
7049.309,18053,-1211.804916
7075.823,18054,-1211.670193
7075.911,18055,-1211.316075
7076.185,18056,-1212.318999
7099.198,18057,-1210.853848
7099.296,18058,-1210.786919
7101.066,18059,-1212.159826
7101.156,18060,-1211.250156
7101.228,18061,-1212.818369
7131.171,18062,-1211.752988
7131.253,18063,-1213.032931
7131.313,18064,-1212.798896
7131.370,18065,-1212.648162
7136.119,18066,-1212.795651
7136.183,18067,-1211.249074
7136.235,18068,-1213.047499
7163.567,18069,-1211.611558
7163.795,18070,-1210.883490
7163.993,18071,-1212.414560
7188.222,18072,-1211.386683
7188.320,18073,-1213.094811
7214.179,18074,-1211.550327
7214.265,18075,-1211.306411
7214.330,18076,-1212.995860
7238.628,18077,-1211.046341
7238.730,18078,-1212.212980
7242.386,18079,-1211.582276
7242.450,18080,-1212.744661
7243.057,18081,-1212.126795
7276.756,18082,-1211.226500
7276.870,18083,-1212.759085
7276.971,18084,-1212.852266
7295.113,18085,-1212.731823
7295.197,18086,-1212.823490
7306.261,18087,-1211.524579
7306.376,18088,-1211.105264
7313.173,18089,-1213.049375
7313.268,18090,-1212.717976
7313.345,18091,-1213.010934
7313.422,18092,-1211.620789
7313.496,18093,-1213.114284
7330.685,18094,-1211.154018
7330.797,18095,-1211.356680
7331.327,18096,-1212.681987
7334.378,18097,-1211.064227
7334.494,18098,-1211.605211
7337.067,18099,-1211.525228
7337.134,18100,-1211.280231
7349.157,18101,-1213.034229
7358.233,18102,-1212.114101
7358.323,18103,-1210.640873
7374.387,18104,4.721442
7374.514,18105,6.237006
7396.558,18106,0.443620
7396.697,18107,-1212.525195
7396.801,18108,-1212.187737
7422.333,18109,-1212.808993
7422.465,18110,-1212.883278
7422.996,18111,-1212.976460
7445.678,18112,-1213.053486
7445.761,18113,-1212.995788
7467.358,18114,-1212.989009
7467.510,18115,-1212.940615
7467.635,18116,-1212.950784
7480.497,18117,-1212.781803
7481.223,18118,-1211.031772
7501.166,18119,-1212.857026
7501.272,18120,-1212.834668
7525.397,18121,-1212.742353
7525.782,18122,-1212.705571
7526.023,18123,-1212.593350
7537.420,18124,-1212.502837
7537.485,18125,-1212.446077
7549.188,18126,-1212.320441
7570.506,18127,-1212.252286
7584.759,18128,-1212.080637
7586.508,18129,-1211.924566
7600.786,18130,-1211.828428
7601.181,18131,-1211.642065
7602.601,18132,-1211.580834
7602.789,18133,-1211.473229
7612.152,18134,-1211.403343
7621.218,18135,-1211.489816
7625.239,18136,-1211.587541
7635.220,18137,-1211.885548
7635.309,18138,-1212.130689
7651.536,18139,-1212.418310
7662.882,18140,-1212.738314
7662.990,18141,-1212.838202
7676.527,18142,-1210.945803
7676.636,18143,-1210.822259
7686.447,18144,-1210.920705
7709.174,18145,-1210.906641
7716.266,18146,-1210.938086
7716.355,18147,-1211.006890
7716.421,18148,-1210.947750
7724.388,18149,-1212.244569
7748.222,18150,-1211.041869
7748.317,18151,-1211.051317
7754.188,18152,-1211.118534
7754.267,18153,-1211.388053
7769.253,18154,-1213.179410
7785.543,18155,-1211.498904
7785.624,18156,-1212.226755
7796.322,18157,-1211.701133
7796.427,18158,-1212.813320
7805.152,18159,-1213.164769
7829.787,18160,-1211.837443
7830.155,18161,-1212.485311
7840.235,18162,-1212.580800
7840.317,18163,-1211.387837
7862.383,18164,-1212.524401
7862.572,18165,-1211.139666
7862.704,18166,-1213.015622
7876.300,18167,-1211.790347
7876.393,18168,-1212.855079
7890.547,18169,-1213.111688
7890.658,18170,-1211.116226
7904.145,18171,-1212.573228
7917.319,18172,-1211.204720
7917.532,18173,-1211.714547
7932.456,18174,-1212.346405
7932.598,18175,-1211.734814
7943.709,18176,-1212.840366
7963.375,18177,-1212.022363
7963.482,18178,-1211.059034
7970.834,18179,-1212.597533
7971.029,18180,-1211.230179
7989.054,18181,-1212.889625
8000.564,18182,-1213.241867
8001.166,18183,-1212.438000
8018.290,18184,-1213.087815
8018.375,18185,-1211.511597
8024.238,18186,-1213.265739
8045.356,18187,-1212.963910
8045.795,18188,-1211.889442
8050.161,18189,-1213.244464
8050.243,18190,-1211.795179
8065.712,18191,-1213.127627
8079.151,18192,-1212.347848
8081.979,18193,-1212.143455
8091.146,18194,-1212.742281
8091.225,18195,-1211.204720
8121.488,18196,-1211.192026
8121.585,18197,-1211.240059
8121.660,18198,-1211.245180
8134.163,18199,-1211.456424
8134.332,18200,-1211.427792
8152.987,18201,-1211.517006
8157.064,18202,-1211.433489
8157.277,18203,-1212.948188
8169.168,18204,-1212.659774
8169.252,18205,-1211.629588
8194.866,18206,1.980027
8195.006,18207,6.146638
8195.106,18208,3.542254
8218.241,18209,-1212.473700
8218.345,18210,-1211.579752
8227.306,18211,-1212.898568
8227.480,18212,-1212.992398
8237.190,18213,-1213.121640
8251.213,18214,-1213.182223
8251.290,18215,-1213.214317
8273.273,18216,-1213.213451
8273.358,18217,-1213.176309
8273.420,18218,-1213.196358
8298.262,18219,-1213.106856
8298.381,18220,-1213.099643
8304.939,18221,-1213.075266
8305.036,18222,-1212.999250
8329.198,18223,-1212.984537
8329.307,18224,-1212.856449
8329.484,18225,-1212.797886
8345.423,18226,-1212.765792
8345.534,18227,-1212.659052
8368.320,18228,-1212.615419
8368.414,18229,-1212.452352
8368.479,18230,-1212.344963
8398.192,18231,-1212.237501
8398.272,18232,-1212.070179
8403.226,18233,-1211.983633
8403.291,18234,-1211.785515
8411.106,18235,-1211.772461
8425.874,18236,-1211.681011
8425.974,18237,-1211.583502
8448.290,18238,-1211.705604
8448.452,18239,-1211.871340
8448.582,18240,-1212.181174
8473.305,18241,-1212.414055
8473.419,18242,-1212.652922
8483.328,18243,-1211.647186
8484.010,18244,-1210.892145
8491.209,18245,-1210.943784
8504.147,18246,-1210.974940
8504.240,18247,-1210.997731
8528.347,18248,-1211.051750
8528.429,18249,-1210.993692
8557.808,18250,-1211.034585
8557.903,18251,-1211.047495
8557.983,18252,-1211.103317
8560.068,18253,-1211.059395
8560.143,18254,-1212.269379
8586.520,18255,-1211.185680
8586.628,18256,-1211.383509
8586.720,18257,-1212.920854
8600.148,18258,-1211.172842
8624.110,18259,-1212.845775
8624.218,18260,-1212.352463
8624.285,18261,-1211.748805
8624.339,18262,-1212.945736
8648.302,18263,-1211.492124
8648.468,18264,-1211.203854
8655.212,18265,-1211.970724
8655.325,18266,-1212.904987
8668.843,18267,-1211.569655
8683.017,18268,-1211.121131
8683.114,18269,-1212.919484
8697.121,18270,-1211.706542
8697.866,18271,-1211.297612
8704.223,18272,-1213.076492
8730.298,18273,-1211.729837
8730.467,18274,-1212.915373
8734.077,18275,-1211.645239
8734.153,18276,-1211.476907
8748.174,18277,-1211.697887
8763.127,18278,-1211.795540
8763.303,18279,-1212.949342
8776.663,18280,-1212.237934
8777.009,18281,-1211.492485
8790.132,18282,-1213.363969
8790.211,18283,-1211.699763
8803.142,18284,-1211.730486
8818.166,18285,-1211.923412
8818.251,18286,-1212.104221
8831.302,18287,-1212.979489
8831.452,18288,-1211.948294
8839.202,18289,-1213.016703
8864.176,18290,-1212.166029
8864.261,18291,-1211.622665
8870.171,18292,-1213.380196
8870.248,18293,-1211.906463
8884.336,18294,-1212.992326
8899.942,18295,-1212.373595
8900.076,18296,-1211.563236
8912.468,18297,-1211.694714
8912.706,18298,-1211.211571
8920.449,18299,-1213.060698
8944.220,18300,-1213.409622
8944.390,18301,-1212.089003
8950.299,18302,-1213.365772
8950.414,18303,-1212.466488
8982.109,18304,-1213.309589
8982.199,18305,-1213.263576
8982.271,18306,-1213.366566
8993.159,18307,-1213.102456
8993.236,18308,-1211.347809
9002.438,18309,-1212.972565
9014.642,18310,-1211.483109
9014.724,18311,-1211.279005
9038.215,18312,-1211.437745
9038.315,18313,-1211.444668
9038.383,18314,-1211.636296
9053.385,18315,-1212.737449
9078.598,18316,-1211.319826
9081.593,18317,-1213.036176
9081.668,18318,-1212.898785
9081.727,18319,-1211.883456
9093.465,18320,0.957559
9093.568,18321,5.853536
9117.172,18322,4.082012
9117.243,18323,-1212.215504
9117.296,18324,-1211.741954
9143.297,18325,-1213.044326
9143.379,18326,-1213.052764
9148.148,18327,-1212.838635
9148.230,18328,-1211.041581
9164.115,18329,-1212.916887
9181.651,18330,-1213.286871
9181.806,18331,-1213.088537
9189.239,18332,-1213.197945
9189.371,18333,-1213.226794
9198.161,18334,-1213.189146
9223.851,18335,-1213.102889
9224.078,18336,-1213.129069
9232.160,18337,-1213.004587
9232.239,18338,-1212.975955
9242.119,18339,-1212.917248
9256.336,18340,-1212.792838
9256.431,18341,-1212.765504
9271.767,18342,-1212.628761
9271.854,18343,-1212.539980
9293.121,18344,-1212.456679
9293.205,18345,-1212.312364
9293.422,18346,-1212.244353
9308.527,18347,-1212.050706
9308.847,18348,-1211.958030
9333.421,18349,-1211.887495
9333.527,18350,-1211.786813
9333.596,18351,-1211.803113
9358.376,18352,-1211.855473
9358.500,18353,-1212.045802
9364.259,18354,-1212.285751
9364.365,18355,-1212.528152
9378.821,18356,-1212.829043
9395.009,18357,-1212.220553
9395.174,18358,-1210.888611
9405.218,18359,-1211.305257
9405.309,18360,-1211.611414
9415.174,18361,-1211.099566
9430.832,18362,-1211.211355
9430.940,18363,-1211.078435
9453.287,18364,-1211.414089
9453.413,18365,-1212.878014
9453.510,18366,-1211.138007
9482.134,18367,-1212.877076
9484.237,18368,-1211.914397
9486.506,18369,-1211.539076
9486.787,18370,-1212.506876
9499.257,18371,-1211.582781
9511.159,18372,-1211.417046
9524.127,18373,-1212.327437
9524.266,18374,-1211.513689
9524.357,18375,-1213.063871
9538.342,18376,-1211.205080
9538.495,18377,-1213.039061
9552.160,18378,-1211.882230
9566.652,18379,-1211.360791
9566.942,18380,-1212.884577
9583.720,18381,-1211.407093
9583.804,18382,-1211.926585
9588.111,18383,-1212.730092
9613.173,18384,-1211.576218
9613.267,18385,-1213.053197
9622.126,18386,-1211.704595
9622.248,18387,-1211.592590
9630.405,18388,-1211.155316
9643.220,18389,-1211.341751
9643.374,18390,-1213.251243
9668.182,18391,-1212.239665
9668.270,18392,-1213.030118
9668.332,18393,-1212.149946
9693.350,18394,-1211.675746
9693.515,18395,-1213.403780
9698.239,18396,-1211.571386
9698.335,18397,-1212.980498
9712.163,18398,-1213.152292
9727.653,18399,-1211.344275
9730.316,18400,-1212.715740
9740.154,18401,-1211.449140
9740.246,18402,-1213.043533
9754.580,18403,-1213.060698
9754.708,18404,-1211.529844
9768.190,18405,-1213.398588
9781.092,18406,-1212.123189
9781.172,18407,-1212.090590
9794.204,18408,-1213.171116
9794.286,18409,-1211.533306
9803.159,18410,-1213.401544
9821.452,18411,-1211.921248
9821.620,18412,-1211.639902
9836.284,18413,-1211.925936
9836.391,18414,-1211.604778
9844.180,18415,-1213.020814
9858.309,18416,-1211.976421
9858.436,18417,-1212.314167
9883.226,18418,-1211.136925
9883.333,18419,-1212.980787
9883.418,18420,-1213.317162
9907.370,18421,-1213.270355
9907.430,18422,-1213.406449
9913.571,18423,-1213.363969
9913.751,18424,-1211.683175
9928.843,18425,-1212.933691
9943.980,18426,-1211.448419
9944.149,18427,-1211.320836
9954.220,18428,-1211.338433
9954.274,18429,-1211.304320
10003.319,18430,-1212.823778
10003.390,18431,-1211.414377
10003.435,18432,-1211.629660
10003.479,18433,-1213.254488
10003.522,18434,-1212.349939
10009.296,18435,-1210.993692
10009.411,18436,4.402304
10018.313,18437,5.804637
10042.187,18438,-1210.286395
10042.269,18439,-1212.616573
10050.575,18440,-1212.897414
10050.668,18441,-1213.004515
10063.823,18442,-1213.140969
10077.880,18443,-1213.228308
10078.298,18444,-1213.320119
10089.079,18445,-1213.270283
10089.139,18446,-1213.286078
10099.137,18447,-1212.722808
10125.562,18448,-1210.997082
10125.719,18449,-1213.009852
10129.662,18450,-1213.108298
10129.786,18451,-1213.104908
10142.116,18452,-1213.080892
10156.172,18453,-1212.975450
10156.306,18454,-1212.982518
10169.395,18455,-1212.867267
10169.556,18456,-1212.786996
10193.197,18457,-1212.747618
10193.321,18458,-1212.571569
10193.421,18459,-1212.527863
10208.890,18460,-1212.355420
10209.025,18461,-1212.244137
10233.157,18462,-1212.135449
10233.242,18463,-1211.963944
10233.308,18464,-1211.918652
10248.169,18465,-1211.785587
10248.300,18466,-1211.795540
10266.280,18467,-1211.840832
10266.435,18468,-1211.911367
10274.707,18469,-1212.156725
10288.302,18470,-1212.382826
10288.460,18471,-1212.671025
10312.484,18472,-1212.924388
10312.544,18473,-1212.748916
10312.585,18474,-1210.961309
10337.166,18475,-1211.010352
10337.238,18476,-1211.060549
10343.591,18477,-1211.091705
10343.785,18478,-1211.061126
10357.502,18479,-1211.162312
10371.378,18480,-1211.131084
10371.535,18481,-1211.133608
10384.265,18482,-1211.144498
10384.423,18483,-1211.171544
10408.354,18484,-1211.168298
10408.458,18485,-1211.231910
10408.501,18486,-1211.668534
10449.201,18487,-1211.550687
10449.314,18488,-1212.446221
10449.390,18489,-1211.722120
10449.463,18490,-1211.555736
10449.536,18491,-1211.912593
10463.169,18492,-1212.265917
10463.297,18493,-1213.028459
10487.285,18494,-1211.597710
10487.370,18495,-1212.983311
10487.437,18496,-1211.938629
10512.493,18497,-1211.366200
10512.570,18498,-1212.965930
10518.205,18499,-1211.505251
10518.263,18500,-1211.795035
10532.227,18501,-1211.711014
10546.962,18502,-1211.589561
10547.117,18503,-1213.323076
10559.321,18504,-1212.372152
10559.477,18505,-1211.790708
10568.463,18506,-1211.920094
10593.543,18507,-1211.422888
10593.630,18508,-1211.205657
10599.226,18509,-1212.750070
10599.299,18510,-1213.160730
10612.507,18511,-1212.027195
10629.578,18512,-1211.858791
10629.743,18513,-1212.988215
10639.453,18514,-1212.100687
10639.621,18515,-1212.093330
10664.399,18516,-1213.070939
10664.473,18517,-1211.777510
10664.525,18518,-1213.072165
10680.028,18519,-1211.699546
10680.137,18520,-1213.049519
10703.281,18521,-1213.394621
10703.361,18522,-1213.437173
10703.421,18523,-1213.402410
10721.462,18524,-1213.354233
10721.610,18525,-1213.314926
10736.412,18526,-1213.006029
10737.921,18527,-1211.571098
10743.230,18528,-1211.263643
10767.248,18529,-1211.494793
10767.317,18530,-1211.307781
10773.476,18531,-1211.579536
10773.530,18532,-1211.431109
10790.367,18533,-1212.659629
10801.066,18534,-1212.845054
10801.123,18535,-1211.899035
10815.278,18536,-1213.518670
10815.433,18537,-1212.984609
10823.448,18538,-1212.217235
10847.132,18539,-1211.176592
10847.220,18540,3.958612
10853.153,18541,5.704316
10853.220,18542,-1210.600845
10867.392,18543,-1212.983528
10896.154,18544,-1211.706686
10896.333,18545,-1213.155754
10896.478,18546,-1213.120559
10896.619,18547,-1213.302161
10909.457,18548,-1213.270355
10909.567,18549,-1213.271581
10919.242,18550,-1213.305623
10942.138,18551,-1213.204652
10942.219,18552,-1213.071372
10948.123,18553,-1213.172198
10948.252,18554,-1213.141185
10962.533,18555,-1213.118106
10982.515,18556,-1212.986485
10982.589,18557,-1213.004587
10989.173,18558,-1212.901020
10989.259,18559,-1212.811590
10999.448,18560,-1212.774447
11022.230,18561,-1212.609433
11022.294,18562,-1212.574237
11028.985,18563,-1212.431869
11029.127,18564,-1212.282361
11044.096,18565,-1212.214062
11056.132,18566,-1212.025103
11056.198,18567,-1211.913820
11069.050,18568,-1211.803113
11069.108,18569,-1211.715918
11094.232,18570,-1211.717937
11094.387,18571,-1211.741665
11094.510,18572,-1211.926946
11116.263,18573,-1212.124992
11116.353,18574,-1212.444058
11130.579,18575,-1212.739252
11130.729,18576,-1212.939389
11133.147,18577,-1211.417118
11157.398,18578,-1210.973065
11157.484,18579,-1211.036604
11166.352,18580,-1211.092210
11166.469,18581,-1211.060332
11175.165,18582,-1211.140171
11188.800,18583,-1211.093652
11188.875,18584,-1211.121852
11212.257,18585,-1211.155100
11212.318,18586,-1211.177746
11212.362,18587,-1211.174356
11237.227,18588,-1211.439043
11237.314,18589,-1211.438177
11246.306,18590,-1211.313191
11246.480,18591,-1211.917786
11255.249,18592,-1211.640479
11268.201,18593,-1211.592301
11268.288,18594,-1213.075987
11292.290,18595,-1211.568862
11292.455,18596,-1213.366061
11292.526,18597,-1211.693560
11317.493,18598,-1211.430460
11317.572,18599,-1212.885803
11323.879,18600,-1211.362233
11348.210,18601,-1212.914074
11348.308,18602,-1211.320331
11348.401,18603,-1213.014251
11348.469,18604,-1213.122578
11363.146,18605,-1211.305546
11363.220,18606,-1212.981941
11393.116,18607,-1212.012626
11393.201,18608,-1213.048725
11393.264,18609,-1213.209485
11403.218,18610,-1211.379759
11403.314,18611,-1212.637921
11427.546,18612,-1211.826480
11430.625,18613,-1211.628002
11431.057,18614,-1212.287554
11453.421,18615,-1211.627064
11453.602,18616,-1212.817576
11458.989,18617,-1212.805027
11459.076,18618,-1213.075771
11475.842,18619,-1213.420945
11489.455,18620,-1213.197801
11489.543,18621,-1213.060121
11499.161,18622,-1213.150129
11499.243,18623,-1212.859406
11509.259,18624,-1213.021175
11534.590,18625,-1211.229890
11534.748,18626,-1211.653821
11539.332,18627,-1211.681011
11539.502,18628,-1211.303310
11552.167,18629,-1211.450582
11565.099,18630,-1211.588551
11565.265,18631,-1211.668822
11580.515,18632,-1213.014179
11580.856,18633,-1211.678198
11603.333,18634,-1212.283082
11603.499,18635,-1212.551375
11603.628,18636,-1213.039855
11618.258,18637,-1212.151244
11618.346,18638,-1210.244060
11642.163,18639,5.352435
11642.256,18640,4.578497
11642.330,18641,-1211.884971
11668.437,18642,-1212.416147
11668.521,18643,-1212.149369
11676.713,18644,-1213.076997
11680.481,18645,-1213.259032
11684.458,18646,-1213.337717
11699.172,18647,-1213.330505
11699.250,18648,-1213.386399
11723.326,18649,-1213.311176
11723.437,18650,-1213.324230
11724.462,18651,-1213.267975
11747.226,18652,-1213.220880
11747.321,18653,-1213.246916
11753.131,18654,-1213.119910
11753.217,18655,-1213.130151
11769.072,18656,-1213.018507
11784.650,18657,-1212.408718
11794.696,18658,-1211.076632
11794.778,18659,-1212.776538
11794.840,18660,-1212.726414
11819.856,18661,-1212.593710
11820.028,18662,-1212.475142
11820.102,18663,-1212.379509
11834.213,18664,-1212.180886
11834.349,18665,-1212.097297
11848.865,18666,-1211.947212
11848.963,18667,-1211.870763
11863.157,18668,-1211.851218
11877.428,18669,-1211.775490
11884.630,18670,-1211.937115
11889.132,18671,-1212.087128
11889.225,18672,-1212.344602
11899.232,18673,-1212.684295
11924.829,18674,-1212.890635
11925.080,18675,-1211.999644
11929.533,18676,-1211.032998
11931.657,18677,-1211.089614
11942.123,18678,-1211.193036
11956.243,18679,-1211.135988
11956.399,18680,-1211.201474
11970.421,18681,-1211.204287
11970.512,18682,-1211.214889
11981.156,18683,-1211.273235
11997.041,18684,-1211.190656
11997.125,18685,-1211.259532
12009.186,18686,-1211.230395
12009.272,18687,-1211.670553
12033.104,18688,-1211.271721
12033.181,18689,-1211.350694
12033.330,18690,-1212.320658
12049.611,18691,-1211.959256
12049.702,18692,-1213.143277
12073.735,18693,-1211.614587
12074.270,18694,-1213.468185
12074.401,18695,-1211.468252
12089.284,18696,-1211.579175
12089.431,18697,-1211.870547
12112.245,18698,-1211.407526
12112.320,18699,-1212.819379
12112.376,18700,-1211.408391
12139.266,18701,-1211.806430
12139.431,18702,-1211.837154
12143.073,18703,-1211.938197
12143.138,18704,-1213.503669
12157.858,18705,-1211.692190
12171.249,18706,-1211.860233
12171.388,18707,-1211.850280
12185.261,18708,-1211.387332
12185.359,18709,-1211.814147
12194.942,18710,-1213.273024
12217.155,18711,-1211.900333
12217.241,18712,-1213.275909
12226.682,18713,-1211.810109
12250.072,18714,-1212.278250
12250.182,18715,-1212.139272
12250.247,18716,-1212.410016
12250.308,18717,-1213.091566
12264.217,18718,-1211.355238
12264.300,18719,-1213.098417
12288.556,18720,-1213.455708
12291.487,18721,-1213.540739
12291.556,18722,-1213.531796
12303.146,18723,-1212.951073
12303.231,18724,-1212.613904
12330.672,18725,-1212.141940
12330.951,18726,-1211.471137
12331.498,18727,-1211.660961
12353.297,18728,-1211.489528
12353.420,18729,-1211.955434
12358.364,18730,-1211.718514
12358.531,18731,-1211.497606
12374.151,18732,-1212.142950
12396.152,18733,-1213.122939
12396.219,18734,-1212.593205
12400.067,18735,-1211.225923
12400.132,18736,3.743834
12409.222,18737,5.925802
12432.134,18738,-1210.194079
12432.200,18739,-1212.841664
12441.183,18740,-1211.757676
12441.257,18741,-1213.232419
12469.321,18742,-1213.242156
12469.429,18743,-1213.433999
12469.512,18744,-1213.447486
12480.959,18745,-1213.375292
12481.057,18746,-1211.716206
12504.161,18747,-1212.899578
12504.240,18748,-1211.186040
12504.296,18749,-1213.064376
12518.267,18750,-1213.328774
12518.351,18751,-1213.276774
12542.156,18752,-1213.188858
12542.241,18753,-1213.160153
12542.304,18754,-1213.103610
12568.250,18755,-1212.991822
12568.407,18756,-1212.967012
12573.732,18757,-1212.804666
12573.818,18758,-1212.760888
12588.222,18759,-1212.590320
12601.150,18760,-1212.474132
12601.227,18761,-1212.341068
12614.614,18762,-1212.144969
12614.883,18763,-1212.041042
12623.603,18764,-1211.904299
12648.175,18765,-1211.825903
12648.247,18766,-1211.854968
12653.116,18767,-1211.848622
12653.204,18768,-1212.066068
12667.298,18769,-1212.342943
12682.890,18770,-1212.620612
12694.068,18771,-1212.947899
12694.176,18772,-1212.820028
12694.240,18773,-1211.266961
12719.227,18774,-1211.197508
12719.320,18775,-1211.236597
12719.392,18776,-1211.330356
12734.999,18777,-1211.266384
12735.132,18778,-1211.328336
12758.183,18779,-1211.335476
12758.262,18780,-1211.335260
12758.320,18781,-1211.368003
12773.872,18782,-1211.394472
12774.230,18783,-1211.685555
12797.153,18784,-1211.703080
12797.227,18785,-1211.934591
12800.072,18786,-1211.419354
12813.225,18787,-1212.730669
12813.322,18788,-1211.714620
12838.294,18789,-1212.337174
12838.414,18790,-1212.401290
12838.474,18791,-1212.124054
12862.286,18792,-1212.384269
12862.383,18793,-1212.641527
12869.097,18794,-1212.385423
12869.204,18795,-1212.245940
12882.344,18796,-1212.426965
12896.173,18797,-1213.184675
12896.260,18798,-1212.193291
12910.322,18799,-1211.759119
12910.411,18800,-1212.315753
12933.500,18801,-1211.525156
12933.766,18802,-1211.841265
12933.838,18803,-1213.364185
12948.203,18804,-1212.934990
12948.305,18805,-1213.234222
12973.881,18806,-1212.008876
12974.465,18807,-1212.149513
12975.155,18808,-1211.388990
13000.293,18809,-1213.022762
13000.458,18810,-1213.486360
13004.083,18811,-1213.547086
13004.177,18812,-1213.496024
13033.642,18813,-1213.375509
13054.174,18814,-1211.798497
13054.253,18815,-1212.064842
13054.314,18816,-1211.572035
13054.372,18817,-1211.579319
13081.483,18818,-1212.540556
13109.210,18819,-1211.568573
13109.306,18820,-1211.914901
13111.098,18821,-1212.106745
13111.196,18822,-1212.924676
13116.127,18823,-1212.230289
13116.233,18824,-1211.537417
13116.401,18825,-1213.184819
13142.148,18826,-1212.388308
13142.220,18827,-1210.456963
13168.465,18828,5.056015
13168.646,18829,3.784366
13168.754,18830,-1212.452424
13194.190,18831,-1212.121674
13194.274,18832,-1212.129319
13194.337,18833,-1213.296535
13194.397,18834,-1213.424119
13194.456,18835,-1213.435370
13225.328,18836,-1213.512179
13227.779,18837,-1213.112986
13232.188,18838,-1211.190800
13232.309,18839,-1213.319831
13256.276,18840,-1213.352430
13285.041,18841,-1213.336851
13293.006,18842,-1213.284635
13293.092,18843,-1213.221457
13293.357,18844,-1213.221529
13315.741,18845,-1213.084858
13321.519,18846,-1213.068847
13321.627,18847,-1212.960376
13344.811,18848,-1212.857387
13344.921,18849,-1212.791396
13348.702,18850,-1212.618231
13367.173,18851,-1212.542287
13367.264,18852,-1212.370854
13393.865,18853,-1212.180525
13394.050,18854,-1212.080276
13394.125,18855,-1211.931129
13420.362,18856,-1211.893337
13420.690,18857,-1211.803185
13431.841,18858,-1211.820711
13431.924,18859,-1211.990413
13432.005,18860,-1212.163937
13453.672,18861,-1212.522021
13453.756,18862,-1212.824716
13453.819,18863,-1213.073680
13453.879,18864,-1211.928172
13479.239,18865,-1211.815518
13479.746,18866,-1211.247560
13479.804,18867,-1211.287804
13504.478,18868,-1211.304248
13504.694,18869,-1211.363820
13531.625,18870,-1211.672068
13531.758,18871,-1211.414882
13531.869,18872,-1211.417118
13538.291,18873,-1211.650503
13538.381,18874,-1211.390577
13564.364,18875,-1213.137147
13564.520,18876,-1211.561578
13564.595,18877,-1211.381562
13590.321,18878,-1212.813248
13590.432,18879,-1211.594826
13614.344,18880,-1211.761499
13614.487,18881,-1211.875090
13616.874,18882,-1212.272697
13634.423,18883,-1213.275187
13634.775,18884,-1211.728323
13643.053,18885,-1213.586320
13643.200,18886,-1211.896005
13643.312,18887,-1212.193507
13643.432,18888,-1213.298338
13643.526,18889,-1211.502871
13667.173,18890,-1213.086373
13667.240,18891,-1211.895717
13667.301,18892,-1211.752700
13667.353,18893,-1212.340058
13697.723,18894,-1211.474815
13718.498,18895,-1212.101769
13718.631,18896,-1212.117347
13718.709,18897,-1211.448274
13718.766,18898,-1211.439548
13752.293,18899,-1212.077103
13781.173,18900,-1213.663562
13781.259,18901,-1211.996976
13781.321,18902,-1213.294804
13781.381,18903,-1213.665005
13803.554,18904,-1212.425667
13833.979,18905,-1213.640411
13834.054,18906,-1211.953991
13834.111,18907,-1213.172919
13834.172,18908,-1213.502731
13847.191,18909,-1212.285102
13847.368,18910,-1212.335370
13847.522,18911,-1211.735535
13874.192,18912,-1211.870547
13874.266,18913,-1212.024454
13874.321,18914,-1211.567996
13900.214,18915,-1211.602470
13900.305,18916,-1211.553933
13924.619,18917,-1211.565761
13924.773,18918,-1213.055505
13934.458,18919,-1211.908915
13934.557,18920,-1211.865787
13934.633,18921,-1213.710009
13951.226,18922,-1213.178328
13951.327,18923,-1212.040177
13951.406,18924,0.746170
13951.486,18925,5.624117
13966.119,18926,2.527791
13966.191,18927,-1212.660639
13966.249,18928,-1211.661394
13993.385,18929,-1213.087888
13993.469,18930,-1213.350555
13993.532,18931,-1213.444241
14019.070,18932,-1213.595047
14019.154,18933,-1213.528767
14019.219,18934,-1212.177713
14044.232,18935,-1213.536845
14044.348,18936,-1213.444457
14046.052,18937,-1213.293867
14046.122,18938,-1213.372263
14074.350,18939,-1213.400463
14074.514,18940,-1213.354665
14074.592,18941,-1213.264225
14101.252,18942,-1213.263143
14101.345,18943,-1213.109236
14101.408,18944,-1213.055649
14130.107,18945,-1212.964055
14130.190,18946,-1212.817143
14152.215,18947,-1212.783390
14152.327,18948,-1212.599768
14152.415,18949,-1212.509328
14174.315,18950,-1212.378860
14174.835,18951,-1212.200719
14199.213,18952,-1212.142157
14199.313,18953,-1212.005486
14201.130,18954,-1211.982912
14201.231,18955,-1212.010246
14201.295,18956,-1212.101480
14229.016,18957,-1212.388957
14229.250,18958,-1212.568828
14253.174,18959,-1212.962324
14253.286,18960,-1212.928354
14253.356,18961,-1211.185535
14284.295,18962,-1211.285424
14284.372,18963,-1211.286866
14290.832,18964,-1211.380264
14290.910,18965,-1211.400746
14290.982,18966,-1211.379615
14317.236,18967,-1211.483181
14317.342,18968,-1211.414522
14317.439,18969,-1211.447770
14317.519,18970,-1211.470921
14342.444,18971,-1211.439187
14367.190,18972,-1211.502366
14367.291,18973,-1211.424835
14367.365,18974,-1211.470776
14367.433,18975,-1211.482893
14398.161,18976,-1211.504674
14403.105,18977,-1211.491692
14403.189,18978,-1211.518305
14432.580,18979,-1211.485850
14435.336,18980,-1211.536119
14453.157,18981,-1211.570376
14453.239,18982,-1211.607952
14453.301,18983,-1211.707768
14481.106,18984,-1211.515059
14481.181,18985,-1211.632545
14490.096,18986,-1211.706614
14490.158,18987,-1211.642137
14490.204,18988,-1211.527680
14492.072,18989,-1211.575785
14492.135,18990,-1212.168409
14517.306,18991,-1213.293290
14517.475,18992,-1211.769288
14542.876,18993,-1211.947861
14543.019,18994,-1212.199854
14543.081,18995,-1212.125280
14572.614,18996,-1213.756311
14572.774,18997,-1211.672212
14578.753,18998,-1212.313373
14604.175,18999,-1212.165163
14604.264,19000,-1213.436451
14604.323,19001,-1213.119693
14604.385,19002,-1211.676179
14604.445,19003,-1212.022507
14629.221,19004,-1212.390471
14629.292,19005,-1213.182439
14661.463,19006,-1213.570237
14661.629,19007,-1212.256469
14661.769,19008,-1212.546182
14667.536,19009,-1213.631540
14667.601,19010,-1213.762513
14667.646,19011,-1213.661831
14693.238,19012,-1211.797487
14693.354,19013,-1213.377889
14693.473,19014,-1211.741809
14693.558,19015,-1211.963944
14719.296,19016,-1212.374893
14744.331,19017,-1211.763374
14744.411,19018,-1211.749094
14746.264,19019,-1211.709210
14746.329,19020,-1211.813931
14762.424,19021,-1212.084171
14762.580,19022,-1212.443048
14762.656,19023,-1212.040249
14769.537,19024,-1213.626059
14771.324,19025,-1212.711701
14771.379,19026,-1211.247271
14796.193,19027,3.885409
14796.280,19028,5.174727
14821.533,19029,-1211.188997
14821.687,19030,-1212.694031
14821.815,19031,-1212.617366
14846.182,19032,-1213.485638
14846.277,19033,-1213.620289
14874.784,19034,-1213.385101
14874.849,19035,-1211.886774
14877.635,19036,-1213.729049
14901.196,19037,-1213.723207
14901.286,19038,-1213.352430
14927.950,19039,-1213.685343
14928.016,19040,-1212.979705
14928.069,19041,-1213.588700
14952.205,19042,-1213.579252
14952.364,19043,-1213.521266
14978.312,19044,-1213.405511
14978.526,19045,-1213.402049
14978.582,19046,-1213.276053
14998.095,19047,-1212.810364
14998.158,19048,-1212.319287
15023.344,19049,-1212.979705
15023.702,19050,-1212.931239
15023.811,19051,-1212.735429
15049.263,19052,-1212.629482
15049.366,19053,-1212.528512
15082.372,19054,-1212.350372
15082.505,19055,-1212.296497
15089.999,19056,-1212.175188
15090.060,19057,-1212.191199
15090.116,19058,-1212.253873
15090.190,19059,-1212.380158
15090.357,19060,-1212.670015
15115.240,19061,-1212.912488
15115.329,19062,-1213.214100
15115.397,19063,-1212.039888
15141.216,19064,-1211.621006
15141.306,19065,-1211.468757
15172.342,19066,-1211.472435
15173.369,19067,-1211.542537
15173.425,19068,-1211.582637
15179.235,19069,-1211.516285
15179.291,19070,-1211.615236
15181.271,19071,-1211.561217
15181.454,19072,-1211.604995
15206.363,19073,-1211.601028
15231.549,19074,-1211.542249
15231.687,19075,-1211.603697
15231.750,19076,-1211.748300
15231.806,19077,-1211.600595
15261.395,19078,-1211.668967
15261.557,19079,-1211.657932
15261.631,19080,-1211.636656
15269.399,19081,-1211.883096
15269.548,19082,-1212.008804
15295.217,19083,-1211.951611
15295.330,19084,-1212.435764
15295.395,19085,-1211.667524
15319.443,19086,-1211.932427
15319.598,19087,-1212.193940
15350.219,19088,-1211.800372
15350.305,19089,-1213.176164
15350.372,19090,-1211.751330
15352.030,19091,-1211.981470
15352.084,19092,-1212.138046
15358.102,19093,-1211.937259
15358.166,19094,-1213.239631
15384.199,19095,-1211.718586
15408.378,19096,-1213.105990
15408.535,19097,-1212.089219
15408.666,19098,-1212.102922
15408.789,19099,-1212.745743
15435.276,19100,-1212.259643
15448.144,19101,-1213.503741
15448.215,19102,-1212.809931
15472.208,19103,-1212.073353
15472.281,19104,-1213.275620
15497.585,19105,-1212.182040
15497.676,19106,-1212.201368
15497.738,19107,-1212.405473
15523.561,19108,-1211.761138
15523.636,19109,-1213.539657
15548.108,19110,-1212.390904
15548.163,19111,-1213.917719
15548.207,19112,-1213.822302
15579.489,19113,-1213.426066
15579.580,19114,-1213.737271
15579.641,19115,-1211.809676
15579.700,19116,-1211.724645
15579.759,19117,-1212.012915
15603.198,19118,-1212.269451
15603.278,19119,-1211.797704
15630.069,19120,-1212.520218
15630.193,19121,-1212.159899
15631.794,19122,-1212.039023
15664.456,19123,-1211.913820
15664.608,19124,-1213.589782
15667.261,19125,-1212.303637
15667.387,19126,-1212.245435
15693.313,19127,-1213.552423
15693.383,19128,-1212.624290
15693.436,19129,-1210.880894
15719.235,19130,4.638430
15719.431,19131,4.057491
15743.275,19132,-1212.068448
15743.423,19133,-1212.384630
15743.546,19134,-1212.950207
15754.910,19135,-1213.539585
15755.112,19136,-1213.689454
15780.164,19137,-1213.374932
15780.244,19138,-1211.589777
15780.310,19139,-1213.391592
15806.294,19140,-1213.767201
15806.453,19141,-1213.752344
15806.520,19142,-1213.659379
15806.560,19143,-1213.643440
15806.599,19144,-1213.535114
15832.134,19145,-1213.523358
15832.205,19146,-1213.536051
15832.260,19147,-1213.392818
15832.314,19148,-1213.383875
15854.250,19149,-1213.245329
15856.153,19150,-1213.183160
15856.233,19151,-1213.083632
15881.164,19152,-1212.925974
15881.255,19153,-1212.883351
15881.322,19154,-1212.679895
15907.245,19155,-1212.555414
15907.322,19156,-1212.417445
15932.136,19157,-1212.261662
15932.216,19158,-1212.267720
15932.278,19159,-1212.058351
15953.319,19160,-1212.081719
15953.398,19161,-1212.223366
15958.284,19162,-1212.298733
15958.435,19163,-1212.608567
15958.565,19164,-1212.955544
15958.688,19165,-1213.136786
15958.812,19166,-1213.113779
15984.209,19167,-1212.093691
15984.330,19168,-1211.437600
15984.426,19169,-1211.508857
16043.538,19170,-1211.513761
16043.654,19171,-1211.524868
16043.713,19172,-1211.502005
16067.590,19173,-1211.647835
16067.683,19174,-1211.560640
16093.232,19175,-1211.558909
16093.318,19176,-1211.574127
16093.384,19177,-1211.602110
16093.446,19178,-1211.668245
16093.508,19179,-1211.826841
16118.366,19180,-1211.602398
16118.461,19181,-1211.948654
16144.236,19182,-1213.135921
16144.355,19183,-1211.655696
16144.450,19184,-1211.875811
16147.975,19185,-1212.524185
16148.031,19186,-1211.814797
16171.212,19187,-1211.686492
16171.322,19188,-1211.640839
16171.397,19189,-1213.387986
16197.844,19190,-1212.021641
16197.994,19191,-1212.236564
16222.227,19192,-1212.226034
16222.335,19193,-1211.820134
16222.419,19194,-1212.015872
16251.187,19195,-1212.420258
16251.273,19196,-1212.054529
16258.347,19197,-1212.483436
16258.443,19198,-1211.652379
16258.499,19199,-1212.068448
16284.350,19200,-1213.517155
16284.439,19201,-1213.488595
16284.497,19202,-1213.736261
16284.553,19203,-1212.150162
16309.259,19204,-1213.687074
16336.171,19205,-1213.649354
16336.252,19206,-1211.862830
16352.101,19207,-1211.714403
16352.189,19208,-1211.714043
16358.939,19209,-1213.417772
16359.011,19210,-1212.293324
16359.087,19211,-1211.778375
16362.556,19212,-1212.161413
16362.905,19213,-1212.139128
16391.008,19214,-1212.668068
16391.088,19215,-1212.156292
16413.240,19216,-1211.836794
16413.421,19217,-1212.504351
16413.555,19218,-1213.526315
16439.354,19219,-1212.775096
16439.458,19220,-1211.131300
16453.353,19221,4.020781
16453.462,19222,4.527291
16453.523,19223,-1212.094412
16459.101,19224,-1212.231660
16459.173,19225,-1212.269451
16485.300,19226,-1213.528623
16485.804,19227,-1213.237828
16486.053,19228,-1211.387404
16510.204,19229,-1213.240497
16510.324,19230,-1213.592090
16510.393,19231,-1213.672866
16540.324,19232,-1213.492418
16540.441,19233,-1213.510304
16547.159,19234,-1213.535546
16547.239,19235,-1213.435081
16547.300,19236,-1213.423542
16547.362,19237,-1213.359137
16547.421,19238,-1213.234222
16572.232,19239,-1213.259753
16572.356,19240,-1213.147099
16572.453,19241,-1213.130295
16572.509,19242,-1212.906934
16598.493,19243,-1212.861498
16623.850,19244,-1212.708239
16624.056,19245,-1212.511347
16624.122,19246,-1212.435908
16624.184,19247,-1212.213269
16644.415,19248,-1212.098018
16645.474,19249,-1212.007001
16647.101,19250,-1211.831817
16648.121,19251,-1212.013203
16648.214,19252,-1212.133069
16648.309,19253,-1212.345540
16674.484,19254,-1212.672972
16674.562,19255,-1212.982878
16679.155,19256,-1212.473195
16680.988,19257,-1211.252897
16701.319,19258,-1211.342760
16730.467,19259,-1211.492846
16730.544,19260,-1211.527464
16730.602,19261,-1211.616823
16730.657,19262,-1211.538859
16754.288,19263,-1211.579536
16754.377,19264,-1211.596412
16754.437,19265,-1211.579103
16761.252,19266,-1211.652956
16761.363,19267,-1211.585955
16786.171,19268,-1211.634709
16786.257,19269,-1211.611558
16786.315,19270,-1211.580257
16812.288,19271,-1211.648051
16812.417,19272,-1211.598504
16841.360,19273,-1211.517367
16841.437,19274,-1211.649277
16841.493,19275,-1211.586964
16847.160,19276,-1211.624468
16847.287,19277,-1211.888072
16874.019,19278,-1211.873792
16874.160,19279,-1211.602398
16874.293,19280,-1211.615020
16898.237,19281,-1211.663702
16898.382,19282,-1211.732578
16924.197,19283,-1212.463026
16924.912,19284,-1211.671491
16925.002,19285,-1212.633233
16932.652,19286,-1211.624612
16934.315,19287,-1212.053736
16945.186,19288,-1211.635142
16945.323,19289,-1212.272985
16945.400,19290,-1213.619712
16953.402,19291,-1212.875994
16953.493,19292,-1213.373994
16981.717,19293,-1212.521661
16981.804,19294,-1211.658509
17002.165,19295,-1212.070468
17002.233,19296,-1211.812489
17002.282,19297,-1211.797704
17032.923,19298,-1211.793881
17037.193,19299,-1211.794747
17037.284,19300,-1212.448385
17037.356,19301,-1211.796261
17037.426,19302,-1212.019694
17063.177,19303,-1213.468401
17063.263,19304,-1213.049735
17063.318,19305,-1211.740439
17089.265,19306,2.550437
17089.367,19307,5.314499
17124.220,19308,-1210.742925
17124.360,19309,-1212.678742
17124.433,19310,-1211.946995
17131.132,19311,-1213.398876
17134.397,19312,-1213.499486
17154.208,19313,-1213.716716
17154.298,19314,-1212.523608
17180.778,19315,-1213.616755
17181.048,19316,-1212.293251
17181.111,19317,-1212.023228
17206.197,19318,-1211.762941
17206.278,19319,-1213.290117
17235.632,19320,-1213.608389
17238.022,19321,-1213.568145
17238.093,19322,-1213.493860
17261.169,19323,-1213.361445
17261.252,19324,-1213.337717
17261.312,19325,-1213.310094
17261.372,19326,-1213.208186
17261.432,19327,-1213.157196
17289.391,19328,-1212.989153
17289.467,19329,-1212.910613
17312.197,19330,-1212.728145
17312.301,19331,-1212.587219
17312.387,19332,-1212.474565
17340.029,19333,-1212.282866
17340.103,19334,-1212.223149
17364.830,19335,-1212.076526
17365.031,19336,-1212.076165
17365.132,19337,-1212.123910
17389.223,19338,-1212.249041
17389.326,19339,-1212.567241
17415.206,19340,-1212.871883
17415.288,19341,-1213.152148
17415.347,19342,-1211.672573
17441.240,19343,-1211.326389
17441.374,19344,-1211.503159
17459.202,19345,-1211.540230
17459.284,19346,-1211.560207
17459.342,19347,-1211.609106
17464.070,19348,-1211.568718
17464.138,19349,-1211.617472
17466.038,19350,-1211.651802
17466.098,19351,-1211.604346
17491.204,19352,-1211.657499
17491.316,19353,-1211.591508
17491.396,19354,-1211.679929
17517.209,19355,-1211.633483
17517.292,19356,-1211.618121
17517.354,19357,-1211.670048
17517.416,19358,-1211.669039
17517.475,19359,-1211.732938
17544.415,19360,-1211.974474
17544.619,19361,-1212.535003
17544.795,19362,-1211.993514
17544.999,19363,-1213.239776
17572.254,19364,-1211.693921
17572.381,19365,-1211.774913
17572.484,19366,-1212.221130
17580.301,19367,-1211.741882
17580.365,19368,-1212.025247
17582.166,19369,-1211.869970
17606.332,19370,-1212.125136
17606.447,19371,-1212.314239
17631.644,19372,-1211.960771
17631.772,19373,-1211.855617
17631.874,19374,-1211.855329
17661.334,19375,-1212.965137
17661.477,19376,-1212.894457
17666.334,19377,-1211.771884
17666.427,19378,-1211.719524
17666.491,19379,-1213.421306
17693.142,19380,-1213.505472
17693.215,19381,-1212.864815
17693.269,19382,-1213.530282
17693.320,19383,-1213.819057
17718.395,19384,-1212.506515
17718.502,19385,-1212.469372
17718.568,19386,-1212.088138
17744.383,19387,-1211.782775
17744.558,19388,-1213.498043
17746.184,19389,-1211.965387
17746.257,19390,-1211.846746
17746.317,19391,-1211.884466
17767.595,19392,-1211.956948
17767.673,19393,-1211.865065
17767.731,19394,-1211.908987
17767.787,19395,-1211.950890
17772.286,19396,-1212.515458
17822.276,19397,-1213.482104
17822.362,19398,-1212.347487
17822.416,19399,-1210.006202
17822.758,19400,5.251392
17853.194,19401,2.294333
17859.285,19402,-1212.990091
17859.372,19403,-1212.023805
17859.434,19404,-1213.394981
17859.612,19405,-1213.674308
17885.687,19406,-1213.786818
17885.785,19407,-1212.283299
17885.866,19408,-1211.942163
17911.469,19409,-1213.599663
17911.778,19410,-1213.868316
17911.888,19411,-1213.779606
17943.144,19412,-1213.768932
17943.218,19413,-1213.700200
17943.271,19414,-1213.740660
17943.322,19415,-1213.639185
17950.251,19416,-1213.560933
17950.331,19417,-1213.520257
17950.393,19418,-1213.390005
17975.528,19419,-1213.380629
17975.667,19420,-1213.321129
17999.315,19421,-1213.170900
17999.457,19422,-1213.120414
17999.558,19423,-1212.933259
18031.835,19424,-1212.874984
18031.992,19425,-1212.786131
18040.600,19426,-1212.573083
18040.700,19427,-1212.476873
18040.778,19428,-1212.375037
18063.359,19429,-1212.300391
18063.441,19430,-1212.353906
18063.499,19431,-1212.352680
18063.553,19432,-1212.585272
18093.040,19433,-1212.856305
18119.601,19434,-1213.145657
18119.695,19435,-1211.917570
18119.768,19436,-1211.376513
18119.837,19437,-1211.569727
18119.911,19438,-1211.674159
18126.311,19439,-1211.690098
18126.452,19440,-1211.770297
18151.226,19441,-1211.765105
18151.352,19442,-1211.815806
18151.454,19443,-1211.771163
18181.149,19444,-1211.786669
18181.238,19445,-1211.811190
18202.575,19446,-1211.775130
18202.657,19447,-1211.792655
18202.714,19448,-1211.807007
18236.094,19449,-1211.766836
18236.232,19450,-1211.808594
18236.339,19451,-1211.772822
18236.442,19452,-1211.805204
18236.500,19453,-1211.771524
18237.061,19454,-1211.780034
18237.125,19455,-1211.818403
18237.179,19456,-1211.807080
18237.231,19457,-1211.817177
18241.140,19458,-1211.806575
18266.214,19459,-1211.799290
18266.303,19460,-1211.886269
18266.372,19461,-1211.836866
18266.439,19462,-1211.895140
18293.264,19463,-1211.930912
18293.410,19464,-1211.908699
18293.510,19465,-1211.895068
18321.178,19466,-1212.022363
18321.250,19467,-1211.956371
18321.305,19468,-1211.934591
18332.593,19469,-1212.384918
18332.674,19470,-1212.012987
18332.738,19471,-1212.202667
18332.796,19472,-1212.091671
18332.854,19473,-1212.287410
18355.211,19474,-1213.310671
18355.309,19475,-1212.340852
18382.342,19476,-1214.130261
18382.432,19477,-1213.274250
18382.489,19478,-1212.899362
18404.383,19479,-1212.723457
18404.474,19480,-1213.652744
18435.712,19481,-1213.247998
18443.513,19482,-1212.382177
18443.630,19483,-1211.942452
18462.191,19484,-1212.896982
18462.274,19485,-1211.952188
18487.143,19486,-1212.305945
18487.222,19487,-1212.154706
18487.278,19488,-1212.075660
18513.211,19489,-1212.468940
18513.337,19490,-1212.124270
18534.014,19491,-1212.147061
18534.106,19492,-1212.138623
18534.167,19493,-1212.386577
18534.231,19494,-1213.871345
18534.288,19495,-1212.862580
18537.110,19496,-1211.080815
18537.194,19497,4.041912
18537.260,19498,3.388923
18563.916,19499,-1212.663308
18564.081,19500,-1212.358233
18590.111,19501,-1213.583075
18592.000,19502,-1213.853891
18596.507,19503,-1213.905891
18617.397,19504,-1213.842496
18625.813,19505,-1212.208653
18640.796,19506,-1213.964382
18640.998,19507,-1213.206888
18641.129,19508,-1212.526132
18644.695,19509,-1213.952626
18647.624,19510,-1212.307387
18652.055,19511,-1213.893126
18652.134,19512,-1213.851944
18652.189,19513,-1213.725082
18679.464,19514,-1213.619496
18679.688,19515,-1213.650148
18705.683,19516,-1213.462415
18705.838,19517,-1213.475109
18706.072,19518,-1213.355242
18729.526,19519,-1213.105052
18729.635,19520,-1213.072309
18750.221,19521,-1213.041441
18750.351,19522,-1212.869647
18750.442,19523,-1212.819811
18752.045,19524,-1212.610298
18752.113,19525,-1212.485960
18759.135,19526,-1212.456535
18759.204,19527,-1212.348857
18759.259,19528,-1212.451919
18783.847,19529,-1212.543802
18783.939,19530,-1212.880466
18808.254,19531,-1213.200830
18808.464,19532,-1213.279803
18808.784,19533,-1211.623674
18835.275,19534,-1211.566554
18835.437,19535,-1211.767773
18864.224,19536,-1211.801959
18864.324,19537,-1211.869537
18864.402,19538,-1211.891895
18870.278,19539,-1211.897376
18870.359,19540,-1211.943173
18870.421,19541,-1211.914324
18870.481,19542,-1211.885331
18896.161,19543,-1211.940000
18921.270,19544,-1211.907761
18921.348,19545,-1211.900693
18921.404,19546,-1211.916272
18921.459,19547,-1211.812705
18953.883,19548,-1211.933581
18954.097,19549,-1211.943606
18954.227,19550,-1211.925287
18956.115,19551,-1211.888865
18956.208,19552,-1211.891967
18984.856,19553,-1211.940072
18984.951,19554,-1211.891173
18985.015,19555,-1211.920310
19006.185,19556,-1211.993370
19006.291,19557,-1212.162423
19031.121,19558,-1211.951106
19031.194,19559,-1211.922114
19031.252,19560,-1212.690714
19062.187,19561,-1212.014934
19062.276,19562,-1212.066717
19067.157,19563,-1212.017819
19067.306,19564,-1212.847650
19067.480,19565,-1212.027700
19093.201,19566,-1212.174179
19093.315,19567,-1212.828033
19120.204,19568,-1212.024166
19120.363,19569,-1212.147926
19120.481,19570,-1212.072776
19120.600,19571,-1212.143671
19120.765,19572,-1212.168697
19144.275,19573,-1212.113813
19144.351,19574,-1213.087455
19144.407,19575,-1212.444851
19158.179,19576,-1213.267398
19158.239,19577,-1213.521483
19183.278,19578,-1212.777188
19183.381,19579,-1212.472257
19183.450,19580,-1212.314311
19208.314,19581,-1214.095427
19208.389,19582,-1213.794607
19208.445,19583,-1212.263465
19208.498,19584,-1212.616428
19208.550,19585,-1212.156365
19234.174,19586,-1212.343953
19234.265,19587,-1212.761537
19234.339,19588,-1212.127155
19254.204,19589,-1212.023444
19254.294,19590,-1212.138695
19259.168,19591,-1212.099028
19259.295,19592,-1212.174900
19261.200,19593,-1212.151965
19286.686,19594,-1212.973070
19286.778,19595,-1213.851944
19286.851,19596,-1212.859118
19286.921,19597,-1210.915656
19287.003,19598,4.077757
19312.646,19599,2.165668
19312.796,19600,-1212.978768
19338.995,19601,-1212.314095
19339.070,19602,-1213.594975
19339.139,19603,-1213.905675
19353.186,19604,-1214.007510
19353.318,19605,-1212.855295
19381.224,19606,-1212.473700
19381.444,19607,-1212.806180
19404.287,19608,-1212.612318
19404.367,19609,-1213.920027
19404.417,19610,-1213.996692
19430.480,19611,-1213.968925
19430.606,19612,-1213.928970
19455.194,19613,-1213.891250
19457.085,19614,-1213.791506
19457.164,19615,-1213.781914
19466.454,19616,-1213.713110
19466.619,19617,-1212.119222
19466.951,19618,-1213.141402
19489.255,19619,-1213.371614
19489.424,19620,-1213.328341
19515.157,19621,-1213.291198
19515.227,19622,-1213.116664
19515.281,19623,-1213.026079
19515.332,19624,-1212.882629
19541.575,19625,-1212.752450
19541.690,19626,-1212.681338
19541.757,19627,-1212.528656
19567.637,19628,-1212.508967
19567.813,19629,-1212.521228
19571.438,19630,-1212.639147
19596.315,19631,-1212.939533
19596.408,19632,-1213.180636
19596.454,19633,-1213.382649
19596.498,19634,-1211.854247
19622.621,19635,-1211.672789
19622.682,19636,-1211.746281
19622.732,19637,-1211.771740
19652.199,19638,-1211.883312
19652.286,19639,-1211.884827
19652.352,19640,-1211.820494
19662.172,19641,-1211.869970
19662.258,19642,-1211.821215
19662.323,19643,-1211.931489
19662.386,19644,-1211.901775
19688.602,19645,-1211.892399
19688.756,19646,-1211.957669
19688.820,19647,-1211.907978
19714.546,19648,-1211.936177
19714.691,19649,-1211.926585
19744.280,19650,-1211.891462
19746.058,19651,-1211.933941
19746.115,19652,-1211.925720
19771.334,19653,-1212.005053
19771.393,19654,-1211.939783
19796.242,19655,-1212.015367
19796.319,19656,-1211.992865
19796.376,19657,-1211.959761
19821.593,19658,-1212.011544
19821.671,19659,-1211.998635
19846.102,19660,-1212.063688
19846.255,19661,-1212.050995
19846.381,19662,-1212.950784
19852.149,19663,-1212.065419
19852.208,19664,-1212.121025
19852.262,19665,-1212.884721
19852.306,19666,-1212.063472
19879.213,19667,-1212.083882
19879.286,19668,-1212.112154
19879.341,19669,-1212.109341
19903.211,19670,-1212.131555
19903.284,19671,-1212.579791
19903.340,19672,-1213.292208
19929.852,19673,-1212.163577
19929.922,19674,-1212.166534
19932.060,19675,-1213.601466
19932.137,19676,-1212.230001
19957.233,19677,-1212.885298
19957.312,19678,-1212.040970
19957.471,19679,-1213.850862
19963.329,19680,-1214.227698
19963.392,19681,-1212.700811
19990.266,19682,-1214.132714
19990.372,19683,-1213.897741
19990.452,19684,-1213.789992
19990.526,19685,-1213.077646
19990.598,19686,-1212.073353
20015.255,19687,-1212.437567
20015.354,19688,-1212.219471
20039.351,19689,-1212.161918
20041.298,19690,-1212.177063
20041.466,19691,-1212.206705
20065.500,19692,-1212.307099
20065.677,19693,-1212.184276
20091.511,19694,-1212.465550
20091.726,19695,-1213.802613
20091.897,19696,-1213.845165
20117.480,19697,-1213.030334
20117.657,19698,-1211.495514
20150.107,19699,3.167366
20150.196,19700,3.100725
20150.260,19701,-1212.652922
20154.075,19702,-1212.453073
20154.146,19703,-1212.775457
20180.363,19704,-1213.925220
20182.112,19705,-1214.026767
20182.160,19706,-1212.865464
20206.159,19707,-1212.009525
20206.255,19708,-1211.930191
20231.262,19709,-1212.629843
20231.369,19710,-1214.074800
20231.540,19711,-1214.107327
20261.604,19712,-1214.032753
20261.739,19713,-1214.027200
20261.865,19714,-1213.277784
20261.994,19715,-1213.854468
20262.115,19716,-1213.842568
20268.123,19717,-1213.732511
20268.192,19718,-1213.674092
20268.248,19719,-1213.588123
20268.305,19720,-1213.493500
20293.134,19721,-1213.481383
20319.370,19722,-1213.381206
20319.450,19723,-1213.203571
20319.500,19724,-1213.123155
20319.549,19725,-1212.942995
20344.200,19726,-1212.858108
20371.342,19727,-1212.759085
20371.412,19728,-1212.616645
20371.463,19729,-1212.624434
20371.513,19730,-1212.601932
20380.664,19731,-1212.777332
20380.823,19732,-1212.998817
20380.988,19733,-1213.285429
20404.322,19734,-1213.178761
20404.451,19735,-1211.529411
20429.500,19736,-1211.735246
20432.074,19737,-1211.853382
20456.134,19738,-1211.883312
20456.274,19739,-1211.967839
20456.357,19740,-1211.943534
20464.262,19741,-1211.965963
20464.371,19742,-1211.969497
20464.446,19743,-1211.929037
20467.214,19744,-1211.971228
20467.304,19745,-1211.894130
20490.797,19746,-1211.945986
20491.010,19747,-1211.936898
20494.586,19748,-1211.914685
20518.267,19749,-1211.930840
20518.370,19750,-1211.913243
20543.739,19751,-1211.946491
20543.896,19752,-1211.969714
20544.039,19753,-1211.931273
20571.494,19754,-1211.978585
20571.556,19755,-1211.999139
20579.026,19756,-1211.977791
20579.100,19757,-1211.974474
20579.159,19758,-1212.038590
20604.287,19759,-1212.003827
20604.397,19760,-1211.980748
20629.998,19761,-1212.125136
20630.071,19762,-1212.070107
20631.054,19763,-1212.376696
20631.137,19764,-1212.109125
20631.204,19765,-1212.111866
20656.394,19766,-1212.107466
20656.517,19767,-1212.102850
20682.126,19768,-1212.057558
20682.210,19769,-1212.160259
20682.270,19770,-1212.441389
20688.308,19771,-1212.412541
20688.396,19772,-1212.201585
20713.309,19773,-1212.109053
20713.379,19774,-1212.172520
20713.429,19775,-1212.897342
20739.252,19776,-1212.271687
20739.359,19777,-1212.355060
20765.321,19778,-1213.748017
20765.437,19779,-1212.260003
20765.501,19780,-1213.394837
20794.215,19781,-1212.808921
20794.297,19782,-1212.176919
20799.275,19783,-1212.753532
20799.370,19784,-1212.176919
20799.442,19785,-1214.007727
20826.535,19786,-1214.303065
20826.781,19787,-1212.617005
20827.890,19788,-1213.847184
20827.982,19789,-1214.241689
20852.218,19790,-1214.182261
20878.004,19791,-1212.647297
20878.359,19792,-1212.163721
20879.706,19793,-1213.518814
20879.828,19794,-1212.279693
20916.120,19795,-1212.195166
20916.229,19796,-1212.275365
20916.286,19797,-1212.351742
20916.345,19798,-1212.267360
20916.404,19799,-1212.476152
20940.168,19800,-1212.751080
20940.248,19801,-1212.244714
20940.308,19802,-1212.509688
20975.205,19803,-1213.599086
20975.748,19804,-1212.456535
20997.320,19805,0.511991
20997.549,19806,4.843112
20997.672,19807,-1210.765787
21023.519,19808,-1213.377744
21023.899,19809,-1212.322172
21024.348,19810,-1213.909713
21024.421,19811,-1214.023521
21050.282,19812,-1214.109779
21050.373,19813,-1213.857786
21050.438,19814,-1212.319792
21058.231,19815,-1214.140358
21058.337,19816,-1213.820571
21058.424,19817,-1212.317412
21062.061,19818,-1212.618087
21062.124,19819,-1212.365157
21062.181,19820,-1213.993230
21062.239,19821,-1213.970007
21094.471,19822,-1213.957242
21094.572,19823,-1213.841054
21094.637,19824,-1213.762513
21114.499,19825,-1213.712172
21114.632,19826,-1213.622886
21141.253,19827,-1213.511458
21141.338,19828,-1212.628184
21141.402,19829,-1213.342693
21166.199,19830,-1213.210134
21166.287,19831,-1213.034878
21189.289,19832,-1212.922296
21189.397,19833,-1212.816277
21189.482,19834,-1212.732256
21216.212,19835,-1212.628040
21216.325,19836,-1212.611091
21216.399,19837,-1212.749349
21216.472,19838,-1212.844405
21242.196,19839,-1213.119260
21267.266,19840,-1213.437533
21267.345,19841,-1213.341539
21267.405,19842,-1211.648412
21267.460,19843,-1211.713177
21294.167,19844,-1211.894635
21302.090,19845,-1211.913675
21302.151,19846,-1211.866580
21302.200,19847,-1211.947933
21302.248,19848,-1211.951539
21330.420,19849,-1211.973104
21330.479,19850,-1211.984787
21330.531,19851,-1211.928172
21386.181,19852,-1212.028277
21386.298,19853,-1211.951900
21386.369,19854,-1211.975700
21386.425,19855,-1211.981542
21389.085,19856,-1211.976493
21389.151,19857,-1212.001664
21389.205,19858,-1211.982696
21414.309,19859,-1211.986879
21414.423,19860,-1212.073064
21417.783,19861,-1213.103538
21441.204,19862,-1212.137036
21441.308,19863,-1212.117203
21467.291,19864,-1212.108764
21467.373,19865,-1212.072054
21467.431,19866,-1212.497644
21497.204,19867,-1212.083810
21497.284,19868,-1212.347920
21497.344,19869,-1212.179804
21497.402,19870,-1212.681915
21503.156,19871,-1212.724322
21503.244,19872,-1212.125280
21503.321,19873,-1212.373018
21531.656,19874,-1212.350516
21531.752,19875,-1212.184492
21531.834,19876,-1212.209446
21556.257,19877,-1212.194733
21556.345,19878,-1212.517405
21581.358,19879,-1212.721365
21581.435,19880,-1213.093513
21581.495,19881,-1213.228020
21581.551,19882,-1212.187161
21581.608,19883,-1213.893775
21603.187,19884,-1213.337861
21603.274,19885,-1212.340491
21609.280,19886,-1212.601716
21609.402,19887,-1212.520507
21609.523,19888,-1212.001736
21633.257,19889,-1212.441750
21633.338,19890,-1214.175842
21658.500,19891,-1214.089224
21658.594,19892,-1214.106101
21658.666,19893,-1213.834491
21690.774,19894,-1212.904987
21690.855,19895,-1212.511564
21695.078,19896,-1212.699224
21697.098,19897,-1212.151316
21697.174,19898,-1212.143383
21722.454,19899,-1212.152975
21722.544,19900,-1212.251637
21722.658,19901,-1212.528512
21722.732,19902,-1212.163144
21722.795,19903,-1212.283371
21748.150,19904,-1213.924571
21748.224,19905,-1212.984609
21748.276,19906,-1211.245036
21748.328,19907,3.851151
21774.179,19908,3.274033
21801.844,19909,-1212.582459
21802.059,19910,-1212.629771
21802.197,19911,-1213.000981
21802.316,19912,-1213.892621
21808.135,19913,-1213.979671
21834.322,19914,-1213.097552
21835.159,19915,-1212.426965
21835.227,19916,-1213.863844
21835.295,19917,-1212.308325
21859.269,19918,-1212.137541
21891.595,19919,-1214.016309
21891.692,19920,-1213.119693
21891.766,19921,-1213.843001
21891.848,19922,-1213.727967
21891.916,19923,-1213.883317
21897.110,19924,-1213.759268
21897.198,19925,-1213.755373
21922.190,19926,-1213.675390
21922.559,19927,-1213.597427
21922.631,19928,-1213.528118
21949.172,19929,-1213.364258
21949.248,19930,-1213.298771
21974.656,19931,-1213.141402
21974.813,19932,-1212.986629
21974.921,19933,-1212.874696
21998.353,19934,-1212.705931
21998.444,19935,-1212.674414
22002.043,19936,-1212.532335
22002.123,19937,-1212.474349
22029.002,19938,-1212.572074
22052.724,19939,-1212.653066
22052.813,19940,-1212.976892
22052.880,19941,-1213.214028
22052.951,19942,-1213.197080
22082.689,19943,-1211.533378
22107.227,19944,-1211.637810
22107.323,19945,-1211.851506
22107.399,19946,-1211.867806
22107.472,19947,-1211.899467
22114.171,19948,-1211.937475
22114.241,19949,-1211.923772
22139.266,19950,-1211.989691
22163.175,19951,-1211.935672
22163.251,19952,-1211.969570
22163.380,19953,-1211.997913
22163.435,19954,-1212.001231
22189.173,19955,-1212.062967
22217.204,19956,-1211.972815
22217.275,19957,-1211.975556
22217.327,19958,-1212.000510
22217.376,19959,-1211.945048
22243.198,19960,-1211.999789
22243.287,19961,-1211.969930
22243.353,19962,-1211.951251
22268.616,19963,-1211.977864
22268.780,19964,-1211.942163
22268.881,19965,-1211.990918
22296.040,19966,-1211.959833
22296.145,19967,-1212.105086
22296.215,19968,-1211.988970
22296.285,19969,-1212.052798
22320.282,19970,-1212.048254
22323.348,19971,-1211.994379
22323.435,19972,-1212.019838
22339.098,19973,-1212.044720
22339.158,19974,-1213.297617
22339.206,19975,-1212.053519
22339.253,19976,-1212.101696
22339.300,19977,-1211.988321
22342.145,19978,-1211.987888
22342.205,19979,-1213.741814
22367.199,19980,-1212.122612
22367.316,19981,-1213.753714
22367.405,19982,-1214.140503
22396.438,19983,-1212.321307
22396.541,19984,-1212.079699
22418.327,19985,-1212.094556
22418.426,19986,-1212.136892
22418.494,19987,-1212.113957
22450.174,19988,-1212.209302
22450.273,19989,-1212.153480
22455.090,19990,-1212.212259
22455.162,19991,-1212.211033
22455.225,19992,-1212.168409
22484.603,19993,-1212.233823
22484.684,19994,-1212.626598
22484.742,19995,-1214.142522
22484.799,19996,-1213.092071
22507.335,19997,-1211.385168
22535.918,19998,3.493788
22536.018,19999,2.947827
22536.177,20000,-1212.991894
22536.268,20001,-1212.529450
22544.108,20002,-1212.232814
22544.186,20003,-1213.794175
22568.273,20004,-1214.020925
22568.390,20005,-1213.522276
22568.482,20006,-1213.914041
22596.186,20007,-1212.581089
22596.292,20008,-1211.934735
22596.364,20009,-1213.670775
22619.154,20010,-1213.335337
22619.231,20011,-1214.022872
22642.144,20012,-1213.935605
22642.203,20013,-1213.913464
22642.245,20014,-1213.803406
22668.245,20015,-1213.833625
22668.375,20016,-1213.704744
22668.460,20017,-1213.618631
22668.545,20018,-1213.532445
22695.327,20019,-1213.375148
22725.755,20020,-1213.314999
22729.633,20021,-1213.276197
22729.727,20022,-1213.067261
22733.111,20023,-1212.984609
22733.243,20024,-1212.774952
22733.338,20025,-1212.675929
22733.438,20026,-1212.566160
22760.247,20027,-1212.425450
22760.364,20028,-1212.451126
22760.458,20029,-1212.483076
22787.222,20030,-1212.706869
22787.335,20031,-1213.041658
22811.286,20032,-1213.276918
22811.392,20033,-1213.252974
22811.471,20034,-1211.616606
22811.547,20035,-1211.765754
22811.622,20036,-1211.898097
22841.174,20037,-1211.900766
22841.263,20038,-1212.009236
22845.088,20039,-1212.030729
22845.162,20040,-1212.011328
22869.155,20041,-1212.070468
22871.204,20042,-1212.048399
22871.393,20043,-1212.073497
22895.243,20044,-1212.062102
22898.282,20045,-1212.062174
22898.371,20046,-1212.083305
22922.603,20047,-1211.990485
22923.005,20048,-1212.051355
22923.074,20049,-1212.013492
22923.136,20050,-1211.995317
22923.198,20051,-1211.963944
22947.158,20052,-1211.992288
22947.236,20053,-1212.021281
22947.294,20054,-1211.984282
22947.350,20055,-1211.960626
22947.406,20056,-1212.032892
22978.737,20057,-1212.031378
22978.857,20058,-1212.039095
22978.953,20059,-1212.074002
22979.041,20060,-1212.090157
23004.212,20061,-1212.043494
23031.791,20062,-1213.296680
23033.537,20063,-1211.995101
23033.769,20064,-1213.511458
23033.853,20065,-1213.291198
23046.818,20066,-1212.501034
23050.090,20067,-1213.254921
23050.162,20068,-1211.922474
23050.252,20069,-1212.383908
23050.311,20070,-1213.241579
23076.091,20071,-1212.208148
23101.216,20072,-1213.096686
23101.307,20073,-1212.221923
23101.381,20074,-1212.124270
23101.452,20075,-1212.151821
23132.315,20076,-1212.090734
23132.431,20077,-1213.123588
23132.500,20078,-1212.243632
23158.186,20079,-1212.400857
23158.274,20080,-1213.844155
23158.340,20081,-1213.089402
23158.404,20082,-1211.436446
23158.466,20083,3.424623
23184.130,20084,3.447558
23184.197,20085,-1212.643835
23208.293,20086,-1212.525339
23208.462,20087,-1212.435836
23208.596,20088,-1213.930340
23233.151,20089,-1213.952482
23233.235,20090,-1213.963877
23238.064,20091,-1213.703590
23238.143,20092,-1214.036575
23238.204,20093,-1212.555918
23258.287,20094,-1213.693060
23258.420,20095,-1213.699912
23258.520,20096,-1213.734097
23280.462,20097,-1212.560101
23280.559,20098,-1211.939495
23280.615,20099,-1213.765182
23280.670,20100,-1213.665654
23303.610,20101,-1213.597355
23303.762,20102,-1213.460035
23303.869,20103,-1213.438615
23303.990,20104,-1213.276558
23304.090,20105,-1213.170900
23330.938,20106,-1213.097480
23331.016,20107,-1212.894529
23331.073,20108,-1212.798031
23344.237,20109,-1212.614553
23344.362,20110,-1212.477522
23368.290,20111,-1212.421700
23368.459,20112,-1212.293468
23368.592,20113,-1212.389173
23392.154,20114,-1212.507958
23392.241,20115,-1212.801204
23401.128,20116,-1213.144936
23401.205,20117,-1213.405151
23410.213,20118,-1212.914291
23423.552,20119,-1211.632473
23423.620,20120,-1211.747723
23448.450,20121,-1211.811263
23448.581,20122,-1211.828500
23448.656,20123,-1211.853886
23466.394,20124,-1211.937403
23466.529,20125,-1211.833188
23480.311,20126,-1211.889875
23484.209,20127,-1211.878841
23493.448,20128,-1211.918003
23493.551,20129,-1211.949880
23503.334,20130,-1211.869970
23530.112,20131,-1211.920238
23530.188,20132,-1211.890813
23533.062,20133,-1211.878841
23533.136,20134,-1211.930552
23547.174,20135,-1211.884682
23563.050,20136,-1211.925071
23577.603,20137,-1211.913892
23580.501,20138,-1212.626886
23580.568,20139,-1211.934518
23585.167,20140,-1213.202056
23598.309,20141,-1211.901054
23598.511,20142,-1211.921969
23624.498,20143,-1211.980532
23624.615,20144,-1211.959617
23624.685,20145,-1212.560967
23638.577,20146,-1211.952549
23638.683,20147,-1213.154384
23662.327,20148,-1212.112587
23662.449,20149,-1212.051211
23662.579,20150,-1213.239054
23687.160,20151,-1211.990773
23687.243,20152,-1213.749531
23693.066,20153,-1213.796194
23693.131,20154,-1212.276952
23718.277,20155,-1213.454698
23718.372,20156,-1213.671640
23718.444,20157,-1213.410560
23734.506,20158,-1211.868094
23734.743,20159,-1211.981470
23757.268,20160,-1212.977181
23757.418,20161,-1212.251060
23757.510,20162,-1212.003106
23783.638,20163,-1212.030296
23783.728,20164,-1212.072487
23795.308,20165,-1212.115111
23795.400,20166,-1212.166389
23802.197,20167,-1213.224919
23816.177,20168,-1213.148542
23816.261,20169,-1212.209662
23830.697,20170,-1213.659307
23830.786,20171,-1212.675280
23844.088,20172,-1210.625583
23863.294,20173,4.906507
23863.407,20174,3.100797
23868.884,20175,-1212.691507
23868.959,20176,-1212.389967
23883.713,20177,-1213.501361
23896.188,20178,-1213.716139
23896.289,20179,-1213.916565
23909.557,20180,-1213.951833
23909.769,20181,-1213.502875
23919.376,20182,-1212.629050
23933.177,20183,-1213.982845
23933.274,20184,-1212.463242
23957.156,20185,-1213.886923
23957.221,20186,-1213.895938
23981.312,20187,-1212.762331
23981.407,20188,-1211.858070
23981.468,20189,-1213.769798
23988.226,20190,-1213.650004
23988.369,20191,-1213.644522
24002.167,20192,-1213.556245
24015.260,20193,-1213.442942
24029.149,20194,-1213.389572
24029.224,20195,-1213.223404
24029.281,20196,-1213.122290
24037.136,20197,-1212.960449
24061.375,20198,-1212.815845
24061.437,20199,-1212.728217
24069.263,20200,-1212.540989
24069.336,20201,-1212.494399
24080.099,20202,-1212.418166
24092.361,20203,-1212.446077
24092.506,20204,-1212.635973
24116.601,20205,-1212.835029
24116.779,20206,-1213.190156
24116.848,20207,-1213.450587
24141.256,20208,-1211.799867
24141.355,20209,-1211.682670
24147.139,20210,-1211.731712
24147.206,20211,-1211.861748
24160.155,20212,-1211.861459
24178.010,20213,-1211.882302
24179.679,20214,-1211.935456
24189.394,20215,-1211.868167
24189.595,20216,-1211.926801
24212.427,20217,-1211.881942
24212.591,20218,-1211.897159
24212.723,20219,-1211.956948
24229.502,20220,-1211.907040
24229.578,20221,-1211.959473
24252.399,20222,-1211.953703
24252.485,20223,-1211.870907
24252.527,20224,-1211.936538
24267.296,20225,-1211.951395
24267.357,20226,-1211.895284
24291.354,20227,-1211.943173
24291.495,20228,-1211.859584
24291.600,20229,-1211.936321
24316.322,20230,-1211.912233
24316.481,20231,-1211.910935
24322.195,20232,-1211.986518
24322.696,20233,-1211.910502
24338.187,20234,-1211.996976
24349.207,20235,-1211.960194
24349.384,20236,-1212.189396
24362.961,20237,-1212.001880
24363.118,20238,-1211.938341
24379.384,20239,-1212.032964
24390.110,20240,-1212.023372
24390.192,20241,-1212.015078
24404.228,20242,-1212.077896
24404.303,20243,-1211.972238
24413.515,20244,-1212.066645
24436.308,20245,-1212.018252
24436.383,20246,-1212.002890
24442.261,20247,-1212.056404
24442.360,20248,-1211.981181
24467.478,20249,-1212.038013
24491.096,20250,-1211.991999
24491.209,20251,-1212.261806
24491.275,20252,-1212.070179
24491.338,20253,-1212.711341
24498.456,20254,-1212.058640
24498.611,20255,-1212.046451
24511.284,20256,-1212.010679
24526.900,20257,-1212.016232
24529.723,20258,-1213.435442
24538.114,20259,-1212.046523
24538.192,20260,-1212.549572
24547.473,20261,-1213.535330
24571.572,20262,-1211.939134
24571.745,20263,-1213.414526
24579.884,20264,-1211.990413
24579.958,20265,-1212.330683
24590.354,20266,-1212.439730
24604.414,20267,-1212.155932
24604.581,20268,-1213.054495
24618.385,20269,-1212.146123
24618.538,20270,-1212.416652
24630.543,20271,-1213.167077
24651.179,20272,-1212.151965
24651.257,20273,-1213.827278
24659.047,20274,-1212.226467
24659.097,20275,-1213.185684
24686.988,20276,-1212.007794
24687.088,20277,1.660384
24687.147,20278,5.471724
24698.277,20279,-1210.326999
24698.435,20280,-1213.928826
24712.241,20281,-1212.676434
24712.337,20282,-1213.172486
24726.982,20283,-1213.739939
24746.068,20284,-1212.351021
24746.137,20285,-1213.700633
24752.074,20286,-1213.724938
24752.134,20287,-1212.360541
24766.187,20288,-1213.927672
24779.839,20289,-1212.464757
24779.901,20290,-1213.756888
24793.138,20291,-1213.920460
24793.217,20292,-1212.639075
24805.171,20293,-1213.760854
24819.404,20294,-1213.352862
24819.469,20295,-1213.686641
24836.713,20296,-1213.653754
24838.574,20297,-1213.307931
24843.350,20298,-1213.398083
24867.222,20299,-1213.472945
24867.325,20300,-1213.251676
24874.276,20301,-1213.112265
24876.823,20302,-1213.099643
24898.157,20303,-1212.790602
24898.289,20304,-1212.822768
24898.411,20305,-1212.599480
24913.357,20306,-1212.490071
24929.052,20307,-1212.580079
24929.150,20308,-1212.413262
24929.207,20309,-1212.731462
24940.804,20310,-1212.971700
24954.476,20311,-1213.208547
24954.569,20312,-1212.591835
24968.428,20313,-1213.612140
24968.498,20314,-1211.772173
24981.699,20315,-1212.278250
25001.370,20316,-1212.347920
25001.509,20317,-1211.962141
25007.258,20318,-1213.441139
25007.320,20319,-1211.951900
25020.328,20320,-1212.054385
25034.211,20321,-1211.940577
25034.285,20322,-1211.987095
25048.150,20323,-1212.165236
25048.266,20324,-1212.430066
25057.200,20325,-1211.988682
25082.408,20326,-1213.758979
25082.550,20327,-1212.014213
25087.214,20328,-1213.045769
25087.306,20329,-1212.753460
25100.451,20330,-1212.103499
25114.240,20331,-1214.038811
25114.307,20332,-1212.003178
25129.668,20333,-1213.397001
25129.791,20334,-1212.816061
25152.424,20335,-1212.272408
25152.501,20336,-1214.058140
25152.542,20337,-1212.090157
25167.341,20338,-1212.097585
25167.422,20339,-1212.611164
25191.281,20340,-1212.052437
25191.366,20341,-1213.713110
25191.425,20342,-1212.034695
25216.443,20343,-1212.830846
25216.540,20344,-1212.449900
25223.944,20345,-1212.138478
25224.128,20346,-1214.015588
25232.081,20347,-1212.023444
25256.237,20348,-1213.118828
25256.296,20349,-1212.693310
25264.108,20350,-1212.210023
25264.176,20351,-1214.060303
25274.077,20352,-1212.105519
25287.123,20353,-1213.381711
25287.184,20354,-1213.012232
25311.279,20355,-1212.405617
25311.347,20356,-1214.093768
25311.394,20357,-1212.109413
25337.193,20358,-1213.426282
25337.266,20359,-1212.815484
25344.321,20360,-1212.181607
25344.417,20361,-1213.981547
25368.412,20362,-1212.138695
25368.492,20363,-1213.340241
25383.072,20364,-1212.739829
25383.203,20365,-1212.188819
25383.299,20366,-1214.012847
25398.240,20367,-1212.050490
25398.365,20368,-1212.196969
25410.129,20369,-1212.692084
25429.112,20370,-1212.384413
25430.692,20371,-1214.090378
25439.224,20372,-1212.136892
25439.360,20373,-1213.872354
25449.185,20374,-1212.711990
25471.180,20375,-1212.222356
25471.255,20376,-1214.008953
25477.855,20377,-1212.116842
25479.833,20378,-1213.790785
25491.211,20379,-1212.942274
25504.110,20380,-1212.348352
25504.200,20381,-1214.033835
25519.166,20382,-1211.973320
25519.281,20383,-1213.845381
25536.632,20384,-1212.950207
25551.916,20385,-1212.532407
25552.025,20386,-1212.957131
25559.340,20387,-1211.187915
25559.478,20388,4.050928
25584.156,20389,2.840294
25584.230,20390,-1212.933908
25584.285,20391,-1214.154422
25598.193,20392,-1212.027483
25598.289,20393,-1213.847905
25612.196,20394,-1213.734963
25612.298,20395,-1212.333063
25625.351,20396,-1214.097302
25639.214,20397,-1212.192498
25639.305,20398,-1212.251349
25652.361,20399,-1212.876211
25652.516,20400,-1212.215576
25666.342,20401,-1214.042129
25681.150,20402,-1212.185934
25681.294,20403,-1213.765687
25693.157,20404,-1213.665221
25693.239,20405,-1212.576762
25702.361,20406,-1213.835572
25729.999,20407,-1213.807878
25730.605,20408,-1213.678131
25733.256,20409,-1213.592955
25733.325,20410,-1213.539585
25745.139,20411,-1213.363969
25759.983,20412,-1213.213235
25760.068,20413,-1213.029181
25774.167,20414,-1212.930158
25774.517,20415,-1212.849021
25782.506,20416,-1212.648883
25806.181,20417,-1212.653066
25806.278,20418,-1212.608207
25812.184,20419,-1212.648378
25812.263,20420,-1212.907295
25861.219,20421,-1213.107793
25861.321,20422,-1212.990451
25861.377,20423,-1211.758325
25862.532,20424,-1213.645604
25862.961,20425,-1211.797127
25886.165,20426,-1212.161557
25886.245,20427,-1212.414127
25886.306,20428,-1212.053880
25893.178,20429,-1211.937043
25893.304,20430,-1212.057125
25916.368,20431,-1212.300031
25916.447,20432,-1212.459564
25916.621,20433,-1212.005414
25942.337,20434,-1213.343270
25942.480,20435,-1212.094628
25947.229,20436,-1212.324047
25947.311,20437,-1212.392851
25961.193,20438,-1212.073569
25974.299,20439,-1213.825620
25975.000,20440,-1212.022867
25989.571,20441,-1212.542143
25989.671,20442,-1212.603374
25998.236,20443,-1212.091744
26031.629,20444,-1213.834419
26031.714,20445,-1212.025536
26031.776,20446,-1212.456030
26031.837,20447,-1212.795362
26040.103,20448,-1212.061525
26054.170,20449,-1213.875023
26054.277,20450,-1212.097513
26068.246,20451,-1212.544451
26068.347,20452,-1213.055144
26096.163,20453,-1212.105879
26096.251,20454,-1213.903150
26096.320,20455,-1212.154129
26112.444,20456,-1212.645493
26112.602,20457,-1212.950640
26130.711,20458,-1212.184997
26132.491,20459,-1213.649931
26134.074,20460,-1212.174539
26148.207,20461,-1212.709682
26148.283,20462,-1212.819739
26171.282,20463,-1212.203388
26171.396,20464,-1214.019338
26171.482,20465,-1212.214062
26197.411,20466,-1212.764494
26197.539,20467,-1213.142988
26203.281,20468,-1212.116626
26203.376,20469,-1214.020853
26216.615,20470,-1212.151532
26232.639,20471,-1213.039133
26232.721,20472,-1213.169169
26244.177,20473,-1212.150162
26244.268,20474,-1214.035421
26268.206,20475,-1212.209518
26268.306,20476,-1212.869215
26268.386,20477,-1213.284275
26307.501,20478,-1212.315032
26307.659,20479,-1214.050279
26307.775,20480,-1212.347992
26307.827,20481,-1212.909819
26307.874,20482,-1213.134478
26322.140,20483,-1212.300896
26322.574,20484,-1213.751118
26347.166,20485,-1212.959439
26347.312,20486,-1211.012443
26347.427,20487,4.277317
26372.146,20488,3.026873
26372.219,20489,-1212.750430
26381.283,20490,-1212.594503
26383.097,20491,-1213.036609
26391.951,20492,-1213.583579
26404.701,20493,-1211.999716
26404.874,20494,-1214.013424
26421.146,20495,-1212.432086
26421.300,20496,-1213.013747
26434.242,20497,-1213.793381
26452.181,20498,-1212.101696
26452.271,20499,-1213.963011
26457.170,20500,-1212.323182
26457.339,20501,-1212.988576
26470.186,20502,-1213.712028
26490.572,20503,-1212.221490
26490.713,20504,-1213.828577
26498.200,20505,-1212.282505
26498.279,20506,-1213.419503
26522.197,20507,-1213.553288
26523.437,20508,-1212.164442
26524.044,20509,-1213.347814
26540.697,20510,-1213.425273
26540.820,20511,-1213.238838
26554.249,20512,-1212.978191
26554.375,20513,-1213.058750
26562.204,20514,-1212.675280
26596.188,20515,-1212.789448
26596.347,20516,-1212.663019
26596.469,20517,-1212.545461
26596.570,20518,-1212.955472
26603.127,20519,-1212.878446
26618.628,20520,-1212.923017
26618.726,20521,-1213.076420
26641.168,20522,-1213.557471
26641.249,20523,-1211.969209
26641.309,20524,-1212.159033
26666.197,20525,-1212.707518
26666.294,20526,-1212.090662
26672.452,20527,-1213.411281
26672.652,20528,-1212.018684
26685.196,20529,-1212.277673
26700.297,20530,-1212.730020
26700.454,20531,-1212.202667
26714.184,20532,-1212.735646
26714.272,20533,-1212.103355
26737.193,20534,-1212.400136
26761.183,20535,-1213.410632
26761.280,20536,-1212.108909
26761.346,20537,-1214.092975
26761.409,20538,-1212.526998
26786.209,20539,-1212.793992
26786.299,20540,-1214.027560
26786.361,20541,-1212.141219
26792.456,20542,-1214.125141
26792.622,20543,-1212.517117
26816.371,20544,-1212.922873
26816.535,20545,-1213.967122
26816.693,20546,-1212.169635
26841.415,20547,-1213.687074
26841.503,20548,-1212.080132
26847.337,20549,-1212.442615
26847.490,20550,-1213.709648
26860.452,20551,-1212.155571
26877.832,20552,-1213.943683
26877.932,20553,-1212.597316
26888.105,20554,-1212.528007
26888.182,20555,-1213.624184
26897.190,20556,-1212.167327
26921.303,20557,-1212.206778
26921.445,20558,-1212.661721
26928.625,20559,-1212.177063
26932.102,20560,-1213.751479
26940.252,20561,-1212.435908
26954.162,20562,-1214.236785
26954.244,20563,-1212.515747
26969.206,20564,-1212.520002
26969.290,20565,-1212.854286
26992.267,20566,-1213.369883
26992.360,20567,-1212.603519
26992.451,20568,-1212.734203
27007.209,20569,-1212.502404
27007.303,20570,-1214.251065
27033.796,20571,-1212.627030
27033.872,20572,-1213.893630
27033.955,20573,-1213.180059
27056.326,20574,-1212.469156
27056.424,20575,-1214.266571
27064.379,20576,-1212.369484
27064.448,20577,-1212.042412
27074.168,20578,-1212.030080
27087.229,20579,-1214.078694
27087.325,20580,-1214.090090
27111.232,20581,-1212.160331
27111.342,20582,-1212.821470
27111.430,20583,-1212.840078
27136.273,20584,-1212.213196
27136.367,20585,-1212.187377
27142.071,20586,-1212.241468
27142.169,20587,-1212.233246
27156.437,20588,-1212.216009
27170.171,20589,-1212.196176
27170.247,20590,-1212.821687
27183.239,20591,-1213.337212
27207.135,20592,-1213.654619
27207.227,20593,-1212.617150
27207.319,20594,-1210.067939
27207.418,20595,5.201123
27222.331,20596,0.939024
27222.440,20597,-1213.526676
27250.170,20598,-1212.252575
27250.264,20599,-1213.847040
27250.337,20600,-1213.951544
27262.252,20601,-1214.118578
27262.338,20602,-1212.885875
27286.178,20603,-1212.440884
27286.275,20604,-1212.080204
27286.345,20605,-1213.813647
27306.215,20606,-1212.454515
27306.331,20607,-1212.456174
27319.183,20608,-1212.163721
27319.280,20609,-1214.003688
27328.897,20610,-1213.948443
27342.356,20611,-1213.956160
27342.427,20612,-1213.839467
27366.437,20613,-1213.767850
27366.755,20614,-1213.802829
27366.866,20615,-1213.669476
27391.221,20616,-1213.598581
27391.348,20617,-1213.422604
27399.301,20618,-1213.308147
27399.379,20619,-1213.144070
27432.675,20620,-1212.985042
27434.414,20621,-1212.915228
27434.486,20622,-1212.780000
27437.087,20623,-1212.712062
27437.174,20624,-1212.705282
27463.403,20625,-1212.584118
27463.496,20626,-1212.625155
27463.560,20627,-1212.780505
27481.291,20628,-1213.141330
27481.406,20629,-1213.387048
27501.149,20630,-1213.698253
27501.214,20631,-1213.375364
27501.260,20632,-1211.642931
27531.352,20633,-1211.795684
27531.433,20634,-1211.876461
27533.114,20635,-1211.893121
27533.216,20636,-1211.946851
27546.144,20637,-1211.969858
27559.162,20638,-1211.919301
27559.250,20639,-1211.966108
27573.676,20640,-1211.916921
27573.781,20641,-1211.905886
27586.307,20642,-1211.922546
27606.634,20643,-1211.879994
27606.730,20644,-1211.888072
27612.412,20645,-1211.892183
27612.565,20646,-1212.243127
27625.271,20647,-1211.948005
27640.706,20648,-1211.890813
27654.178,20649,-1211.897664
27654.301,20650,-1213.382649
27654.372,20651,-1213.048076
27681.269,20652,-1213.741886
27681.352,20653,-1214.022800
27681.414,20654,-1212.160836
27693.157,20655,-1213.598220
27693.230,20656,-1213.234944
27707.115,20657,-1212.048399
27707.206,20658,-1212.973142
27725.124,20659,-1211.940000
27735.121,20660,-1212.207355
27735.197,20661,-1212.897919
27748.142,20662,-1211.965747
27748.261,20663,-1213.165490
27757.349,20664,-1212.865248
27785.210,20665,-1212.960376
27785.306,20666,-1212.618231
27788.090,20667,-1211.900477
27788.180,20668,-1211.879634
27800.348,20669,-1211.972743
27814.656,20670,-1212.443409
27814.736,20671,-1212.373306
27831.658,20672,-1212.109197
27831.778,20673,-1214.030084
27837.194,20674,-1212.550293
27854.261,20675,-1212.687468
27854.349,20676,-1213.058534
27869.269,20677,-1212.809859
27869.352,20678,-1214.051865
27893.175,20679,-1212.941048
27893.266,20680,-1214.044076
27893.335,20681,-1213.975921
27908.220,20682,-1213.922551
27908.348,20683,-1213.852088
27932.181,20684,-1213.320191
27932.275,20685,-1213.827206
27932.348,20686,-1213.825043
27947.202,20687,-1211.943750
27947.282,20688,-1213.738280
27971.408,20689,-1211.807584
27971.548,20690,-1211.827995
27971.648,20691,-1211.893481
27996.280,20692,-1211.823668
27996.441,20693,-1212.419176
28002.274,20694,-1211.871412
28002.435,20695,-1211.827057
28015.244,20696,-1211.937475
28029.685,20697,-1211.888072
28029.837,20698,-1213.071227
28043.242,20699,-1212.508102
28043.349,20700,-1210.362844
28052.205,20701,4.944154
28079.608,20702,2.028781
28079.681,20703,-1213.042018
28087.842,20704,-1212.150595
28090.974,20705,-1212.956338
28122.245,20706,-1213.588989
28122.357,20707,-1213.665582
28122.424,20708,-1213.661182
28122.483,20709,-1213.827206
28122.540,20710,-1213.748954
28138.041,20711,-1213.724938
28138.473,20712,-1213.723640
28150.128,20713,-1213.698758
28164.238,20714,-1213.662625
28164.335,20715,-1213.585815
28180.629,20716,-1213.544994
28182.480,20717,-1213.502298
28189.850,20718,-1213.307282
28213.199,20719,-1213.266172
28213.296,20720,-1213.263359
28218.103,20721,-1213.263576
28218.223,20722,-1213.150561
28231.429,20723,-1213.040864
28244.220,20724,-1212.881475
28244.300,20725,-1212.825870
28261.254,20726,-1212.645133
28261.348,20727,-1212.584551
28267.400,20728,-1212.423215
28292.190,20729,-1212.273346
28292.275,20730,-1212.210384
28298.085,20731,-1212.155571
28298.158,20732,-1212.195455
28310.209,20733,-1212.371215
28325.267,20734,-1212.610154
28325.916,20735,-1212.878086
28338.166,20736,-1213.122001
28338.260,20737,-1213.257373
28364.038,20738,-1211.555591
28364.177,20739,-1211.402405
28364.254,20740,-1211.442505
28385.682,20741,-1211.460896
28385.767,20742,-1211.470055
28394.135,20743,-1211.509938
28394.224,20744,-1211.567347
28404.195,20745,-1211.586964
28417.622,20746,-1211.536696
28417.815,20747,-1211.527897
28441.204,20748,-1211.526671
28441.321,20749,-1211.524291
28441.416,20750,-1211.539076
28467.729,20751,-1211.548019
28467.889,20752,-1211.600884
28474.215,20753,-1211.515492
28474.342,20754,-1211.544917
28485.155,20755,-1211.617111
28499.819,20756,-1211.578959
28499.895,20757,-1211.555591
28513.377,20758,-1211.532152
28513.452,20759,-1211.712744
28522.195,20760,-1212.306161
28546.248,20761,-1213.154528
28555.195,20762,-1211.697238
28556.221,20763,-1213.266533
28556.281,20764,-1213.347237
28586.308,20765,-1212.817504
28586.466,20766,-1213.385317
28586.618,20767,-1211.637161
28597.070,20768,-1213.337933
28597.159,20769,-1212.080781
28608.593,20770,-1211.917426
28608.754,20771,-1213.623679
28624.662,20772,-1211.680722
28635.498,20773,-1211.595186
28635.612,20774,-1212.364003
28648.302,20775,-1211.632834
28648.403,20776,-1211.703080
28657.186,20777,-1211.686059
28686.055,20778,-1211.732794
28686.152,20779,-1211.964305
28688.167,20780,-1211.757027
28688.270,20781,-1213.427797
28700.244,20782,-1212.880321
28714.178,20783,-1213.287520
28714.236,20784,-1213.163904
28729.796,20785,-1212.635541
28729.856,20786,-1213.485494
28740.263,20787,-1212.638786
28754.265,20788,-1211.692623
28754.329,20789,-1212.030152
28768.445,20790,-1212.446798
28768.506,20791,-1213.163471
28792.199,20792,-1211.795179
28792.284,20793,-1211.769793
28792.344,20794,-1211.869176
28807.392,20795,-1211.854824
28807.469,20796,-1212.282722
28832.181,20797,-1211.837298
28832.274,20798,-1213.532806
28832.350,20799,-1213.596201
28848.368,20800,-1212.582387
28848.484,20801,-1210.761677
28871.260,20802,4.586142
28871.322,20803,3.991067
28871.368,20804,-1212.170717
28896.237,20805,-1212.161918
28896.335,20806,-1213.298915
28902.158,20807,-1213.522132
28902.242,20808,-1213.584517
28916.442,20809,-1213.666736
28929.578,20810,-1212.556063
28929.711,20811,-1213.648056
28945.428,20812,-1213.663562
28945.565,20813,-1213.680655
28953.171,20814,-1213.656134
28978.821,20815,-1213.591224
28978.935,20816,-1213.475397
28987.341,20817,-1211.925143
28987.414,20818,-1211.743829
29023.212,20819,-1213.396280
29023.787,20820,-1213.292424
29023.849,20821,-1213.209701
29023.906,20822,-1213.239631
29023.964,20823,-1213.178400
29049.136,20824,-1212.937370
29049.236,20825,-1212.891140
29049.313,20826,-1212.765504
29075.722,20827,-1212.609577
29075.791,20828,-1212.449972
29104.267,20829,-1212.242117
29104.348,20830,-1212.177568
29104.409,20831,-1212.120736
29109.772,20832,-1212.039528
29109.845,20833,-1212.161052
29112.242,20834,-1212.135954
29140.904,20835,-1212.392851
29140.994,20836,-1212.681410
29162.434,20837,-1212.958646
29162.526,20838,-1213.216480
29162.582,20839,-1212.990812
29188.212,20840,-1211.305834
29188.280,20841,-1211.379543
29207.295,20842,-1211.395698
29207.368,20843,-1211.406228
29207.426,20844,-1211.424619
29233.143,20845,-1211.438754
29233.222,20846,-1211.472652
29233.278,20847,-1211.438826
29233.333,20848,-1211.481955
29259.215,20849,-1211.644085
29293.983,20850,-1211.623746
29294.063,20851,-1211.553860
29294.122,20852,-1212.235626
29294.177,20853,-1211.637449
29319.326,20854,-1211.525661
29321.541,20855,-1211.578310
29321.608,20856,-1211.645960
29346.174,20857,-1211.574271
29346.254,20858,-1211.681083
29380.411,20859,-1212.176631
29380.487,20860,-1211.734958
29380.546,20861,-1211.699618
29383.063,20862,-1212.128814
29383.141,20863,-1211.799867
29388.476,20864,-1212.006279
29388.671,20865,-1211.822730
29413.424,20866,-1211.894130
29440.095,20867,-1211.827923
29440.213,20868,-1211.923772
29440.279,20869,-1212.056404
29440.341,20870,-1212.030512
29464.429,20871,-1212.118284
29497.320,20872,-1212.131050
29497.412,20873,-1212.233679
29497.477,20874,-1212.241107
29497.543,20875,-1212.403021
29503.206,20876,-1212.394294
29503.300,20877,-1212.404463
29503.370,20878,-1212.454371
29531.148,20879,-1212.644628
29531.309,20880,-1213.329423
29554.325,20881,-1212.495625
29554.403,20882,-1212.431509
29554.464,20883,-1212.237501
29584.198,20884,-1212.190694
29584.296,20885,-1212.205624
29589.405,20886,-1212.228198
29589.559,20887,-1212.447159
29589.679,20888,-1212.244714
29616.360,20889,-1212.265773
29616.454,20890,-1212.214422
29616.510,20891,-1212.180597
29616.552,20892,-1212.360252
29616.593,20893,-1212.323470
29643.278,20894,-1212.398261
29643.371,20895,-1212.313157
29643.436,20896,-1212.303493
29643.498,20897,-1212.255965
29668.376,20898,-1212.284020
29668.529,20899,-1214.177357
29668.656,20900,-1214.254671
29691.401,20901,-1214.180819
29691.548,20902,-1214.098312
29691.670,20903,-1213.929980
29717.403,20904,-1212.894602
29717.567,20905,-1211.793953
29717.705,20906,2.081935
29717.833,20907,5.232568
29743.283,20908,-1210.667846
29768.429,20909,-1213.472873
29768.592,20910,-1213.963156
29768.645,20911,-1213.583868
29768.683,20912,-1213.721332
29795.605,20913,-1213.713398
29803.095,20914,-1213.684622
29803.172,20915,-1213.794103
29803.236,20916,-1213.819634
29803.298,20917,-1213.669044
29831.239,20918,-1213.610481
29831.438,20919,-1213.538071
29831.515,20920,-1213.581776
29855.227,20921,-1213.595696
29855.300,20922,-1213.578242
29881.282,20923,-1213.416618
29881.372,20924,-1213.225928
29881.438,20925,-1213.185396
29909.953,20926,-1213.423397
29910.264,20927,-1213.236963
29937.738,20928,-1213.105269
29937.813,20929,-1212.844189
29937.871,20930,-1212.670952
29961.703,20931,-1212.650181
29961.859,20932,-1212.602220
29989.333,20933,-1212.347487
29989.422,20934,-1212.196825
29989.483,20935,-1212.268225
30019.316,20936,-1212.300391
30019.438,20937,-1212.138334
30027.766,20938,-1212.158240
30027.978,20939,-1212.207138
30028.451,20940,-1212.602653
30052.096,20941,-1212.970401
30052.154,20942,-1213.009852
30052.200,20943,-1213.148542
30052.244,20944,-1213.232996
30079.104,20945,-1213.325456
30079.186,20946,-1213.366566
30079.259,20947,-1213.279226
30109.327,20948,-1212.286111
30109.537,20949,-1211.622809
30109.599,20950,-1211.815374
30109.658,20951,-1211.623818
30109.711,20952,-1213.160803
30114.207,20953,-1211.408608
30114.320,20954,-1212.805676
30117.256,20955,-1212.782164
30117.380,20956,-1212.422854
30142.104,20957,-1213.090268
30142.167,20958,-1211.806575
30142.217,20959,-1213.030984
30168.452,20960,-1212.823057
30168.544,20961,-1211.511164
30168.590,20962,-1211.464502
30194.496,20963,-1211.537705
30194.594,20964,-1211.522343
30194.641,20965,-1211.503808
30194.688,20966,-1211.595186
30194.734,20967,-1211.573333
30222.228,20968,-1211.654182
30222.322,20969,-1211.856483
30222.380,20970,-1212.217956
30222.454,20971,-1211.639757
30253.207,20972,-1211.644229
30253.306,20973,-1211.678559
30253.381,20974,-1211.769937
30280.871,20975,-1211.800156
30280.970,20976,-1211.773976
30304.250,20977,-1211.792727
30304.310,20978,-1211.819484
30304.354,20979,-1211.800805
30330.185,20980,-1211.819845
30330.283,20981,-1211.924277
30351.270,20982,-1211.849631
30351.417,20983,-1211.865714
30351.551,20984,-1211.824533
30382.473,20985,-1211.908771
30382.561,20986,-1211.907401
30402.222,20987,-1212.137541
30402.323,20988,-1211.848766
30402.403,20989,-1212.263826
30431.756,20990,-1211.843285
30433.941,20991,-1211.916200
30434.073,20992,-1211.929470
30434.174,20993,-1211.987528
30434.273,20994,-1211.933725
30434.371,20995,-1211.981398
30434.470,20996,-1212.036571
30454.313,20997,-1212.033541
30454.408,20998,-1212.027700
30479.676,20999,-1212.015583
30479.796,21000,-1212.324336
30479.891,21001,-1212.122107
30504.318,21002,-1213.750830
30504.409,21003,-1213.110101
30524.809,21004,-1211.532585
30524.907,21005,3.290982
30525.643,21006,1.881148
30549.249,21007,-1212.635541
30549.373,21008,-1212.538032
30549.471,21009,-1212.514232
30580.396,21010,-1213.924787
30580.559,21011,-1212.375254
30602.274,21012,-1211.981109
30602.372,21013,-1211.909709
30602.447,21014,-1212.322677
30616.447,21015,-1213.726957
30616.613,21016,-1212.053375
30638.198,21017,-1213.678419
30638.292,21018,-1213.578242
30638.364,21019,-1213.974911
30666.550,21020,-1213.895506
30666.645,21021,-1213.858363
30689.259,21022,-1213.738425
30689.361,21023,-1213.834058
30691.092,21024,-1213.828432
30691.172,21025,-1213.653033
30691.241,21026,-1213.641133
30709.254,21027,-1213.458521
30709.353,21028,-1211.565688
30716.820,21029,-1213.396135
30717.021,21030,-1213.220159
30717.212,21031,-1213.136930
30742.189,21032,-1213.031272
30742.276,21033,-1212.917608
30742.336,21034,-1212.879240
30742.425,21035,-1212.787285
30769.356,21036,-1212.860921
30794.188,21037,-1212.969897
30794.276,21038,-1213.045552
30794.340,21039,-1213.285068
30794.404,21040,-1213.459242
30813.318,21041,-1211.983922
30819.223,21042,-1211.589561
30819.307,21043,-1211.659014
30819.373,21044,-1211.791790
30819.437,21045,-1211.751330
30845.611,21046,-1211.790708
30871.265,21047,-1211.773904
30871.361,21048,-1211.778591
30871.513,21049,-1211.779890
30871.577,21050,-1211.728755
30897.199,21051,-1211.743757
30897.325,21052,-1212.025031
30897.425,21053,-1213.809897
30923.401,21054,-1212.393500
30923.493,21055,-1213.840549
30936.115,21056,-1211.943029
30936.267,21057,-1212.835606
30936.341,21058,-1211.473950
30956.264,21059,-1212.072631
30956.411,21060,-1213.674885
30956.532,21061,-1213.704167
30956.645,21062,-1213.652744
30982.800,21063,-1213.635363
31012.306,21064,-1213.671712
31012.387,21065,-1213.624256
31012.448,21066,-1213.657071
31012.510,21067,-1213.624328
31014.134,21068,-1213.601105
31039.171,21069,-1212.443697
31039.253,21070,-1213.572184
31042.063,21071,-1213.628728
31042.129,21072,-1213.602115
31042.192,21073,-1213.590143
31066.227,21074,-1212.114029
31066.346,21075,-1213.589349
31066.441,21076,-1213.549827
31066.534,21077,-1213.536556
31093.196,21078,-1213.467896
31093.279,21079,-1213.423181
31093.343,21080,-1213.334399
31120.232,21081,-1213.389067
31120.347,21082,-1213.434865
31120.436,21083,-1213.440707
31134.136,21084,-1211.959833
31134.207,21085,-1213.494581
31134.262,21086,-1211.653460
31134.314,21087,-1211.335693
31159.470,21088,-1211.336774
31184.297,21089,-1211.520612
31184.405,21090,-1213.100509
31184.465,21091,-1212.243560
31184.523,21092,-1212.062029
31214.171,21093,-1213.215831
31214.258,21094,-1212.407492
31214.323,21095,-1210.730664
31221.139,21096,4.764066
31221.266,21097,4.062467
31246.202,21098,-1211.778808
31246.302,21099,-1212.136026
31246.383,21100,-1213.020814
31274.545,21101,-1213.083128
31274.697,21102,-1213.187560
31295.275,21103,-1213.256941
31297.085,21104,-1213.343847
31297.171,21105,-1213.309085
31328.198,21106,-1213.269273
31331.128,21107,-1213.210350
31331.195,21108,-1213.192175
31331.255,21109,-1213.200253
31331.312,21110,-1213.091566
31332.420,21111,-1213.090340
31332.512,21112,-1213.036176
31357.470,21113,-1212.970401
31357.596,21114,-1212.945736
31357.667,21115,-1212.837409
31383.499,21116,-1212.788078
31383.676,21117,-1211.685482
31408.195,21118,-1212.539907
31408.290,21119,-1212.389606
31408.363,21120,-1212.383764
31432.058,21121,-1212.309262
31434.762,21122,-1212.174539
31438.725,21123,-1212.058568
31438.812,21124,-1212.064698
31460.551,21125,-1212.015511
31460.880,21126,-1211.909636
31461.078,21127,-1211.994812
31490.625,21128,-1212.058784
31490.900,21129,-1212.310344
31511.026,21130,-1212.529955
31511.166,21131,-1212.708239
31511.248,21132,-1212.982734
31533.651,21133,-1213.102745
31533.879,21134,-1211.658725
31534.072,21135,-1211.330067
31534.198,21136,-1212.300031
31534.692,21137,-1211.096177
31560.316,21138,-1212.586354
31560.409,21139,-1211.127838
31560.480,21140,-1211.417478
31560.550,21141,-1212.830413
31588.171,21142,-1211.175366
31612.951,21143,-1213.156259
31613.087,21144,-1211.719596
31613.198,21145,-1211.970940
31613.305,21146,-1213.235881
31632.821,21147,-1211.551336
31643.089,21148,-1212.853348
31645.360,21149,-1211.054058
31663.243,21150,-1211.073458
31663.367,21151,-1213.122001
31699.440,21152,-1213.298699
31699.532,21153,-1213.285284
31699.597,21154,-1212.000365
31715.318,21155,-1212.301618
31715.424,21156,-1213.109236
31731.820,21157,-1211.454477
31731.896,21158,-1213.315143
31731.962,21159,-1212.131555
31733.086,21160,-1212.915373
31738.117,21161,-1213.285573
31738.248,21162,-1212.307964
31738.372,21163,-1213.271726
31762.379,21164,-1212.477234
31787.251,21165,-1212.803584
31787.379,21166,-1213.126040
31787.479,21167,-1211.575930
31813.311,21168,-1213.085147
31813.413,21169,-1211.370816
31834.151,21170,-1211.442649
31834.261,21171,-1211.529411
31834.353,21172,-1211.253258
31834.444,21173,-1211.623025
31834.533,21174,-1211.466088
31839.127,21175,-1211.559847
31839.251,21176,-1212.432086
31864.243,21177,-1211.277130
31864.352,21178,-1212.100398
31864.449,21179,-1212.247454
31889.211,21180,-1210.806969
31889.300,21181,4.718990
31914.304,21182,5.154677
31914.410,21183,-1211.266023
31914.499,21184,-1212.589671
31934.195,21185,-1212.383187
31934.292,21186,-1212.999034
31940.120,21187,-1213.129574
31940.203,21188,-1213.174650
31966.210,21189,-1213.279298
31992.339,21190,-1213.192392
31992.478,21191,-1213.121568
31992.587,21192,-1213.162245
31992.725,21193,-1213.140897
32017.147,21194,-1213.121785
32017.216,21195,-1213.013891
32017.266,21196,-1212.931456
32035.645,21197,-1212.951289
32035.748,21198,-1212.842746
32039.251,21199,-1212.831423
32039.346,21200,-1212.784472
32039.416,21201,-1212.664678
32065.255,21202,-1212.628617
32065.360,21203,-1212.503919
32089.371,21204,-1212.415786
32089.445,21205,-1212.267216
32089.500,21206,-1212.126362
32121.350,21207,-1212.107899
32121.458,21208,-1211.909132
32130.685,21209,-1211.884105
32130.760,21210,-1211.792078
32130.818,21211,-1211.736545
32130.873,21212,-1211.891678
32130.934,21213,-1212.016953
32155.185,21214,-1212.336380
32155.266,21215,-1212.519497
32187.392,21216,-1212.722231
32187.518,21217,-1212.987711
32206.228,21218,-1212.987494
32206.340,21219,-1210.923013
32206.410,21220,-1211.247848
32233.352,21221,-1212.840582
32233.438,21222,-1210.996505
32233.499,21223,-1211.074901
32257.230,21224,-1211.047783
32257.325,21225,-1211.002419
32257.398,21226,-1212.487042
32283.133,21227,-1211.054923
32283.389,21228,-1212.782597
32308.275,21229,-1212.801420
32308.407,21230,-1211.304031
32308.511,21231,-1213.139310
32324.260,21232,-1211.454261
32324.380,21233,-1212.768533
32330.730,21234,-1212.872388
32330.948,21235,-1211.689161
32354.363,21236,-1213.156692
32379.344,21237,-1211.474166
32379.520,21238,-1212.436629
32379.671,21239,-1210.886231
32379.821,21240,-1211.314272
32405.512,21241,-1213.158783
32407.256,21242,-1212.870008
32407.392,21243,-1212.697565
32422.270,21244,-1212.832649
32422.361,21245,-1211.456568
32422.426,21246,-1213.120919
32429.850,21247,-1213.045192
32429.933,21248,-1213.079089
32454.036,21249,-1213.098417
32454.129,21250,-1211.292275
32482.381,21251,-1212.748483
32483.472,21252,-1211.392741
32483.785,21253,-1211.133175
32511.454,21254,-1212.215649
32511.614,21255,-1211.097691
32515.249,21256,-1212.869575
32515.318,21257,-1211.309585
32518.082,21258,-1211.581555
32543.245,21259,-1213.252325
32543.366,21260,-1212.916527
32568.204,21261,-1211.863118
32568.265,21262,0.483864
32568.308,21263,5.545504
32593.773,21264,4.079488
32593.907,21265,-1212.158528
32618.313,21266,-1212.955112
32618.401,21267,-1212.898280
32618.467,21268,-1212.546543
32624.280,21269,-1210.842164
32624.427,21270,-1213.095965
32624.503,21271,-1213.036753
32624.576,21272,-1213.077791
32650.209,21273,-1213.069136
32677.613,21274,-1212.976532
32677.729,21275,-1213.023627
32677.784,21276,-1212.928354
32677.837,21277,-1212.925253
32708.766,21278,-1212.868926
32708.853,21279,-1212.808344
32708.977,21280,-1212.766153
32713.184,21281,-1212.651624
32713.286,21282,-1212.619674
32713.377,21283,-1212.486105
32713.443,21284,-1212.375542
32740.233,21285,-1212.354338
32740.353,21286,-1212.145835
32740.418,21287,-1212.106961
32766.421,21288,-1211.912089
32766.658,21289,-1211.766547
32766.793,21290,-1211.706037
32792.258,21291,-1211.606221
32792.423,21292,-1211.547442
32811.507,21293,-1211.573333
32811.592,21294,-1211.639253
32811.659,21295,-1211.910646
32817.146,21296,-1212.098523
32817.273,21297,-1212.429994
32817.372,21298,-1211.570088
32817.474,21299,-1211.027950
32843.285,21300,-1211.146373
32869.181,21301,-1212.637921
32869.268,21302,-1212.570920
32869.332,21303,-1211.220442
32869.387,21304,-1212.683429
32902.957,21305,-1210.875196
32903.125,21306,-1212.533921
32903.256,21307,-1211.540951
32903.388,21308,-1212.604384
32903.517,21309,-1212.982951
32931.626,21310,-1211.209191
32931.706,21311,-1213.023050
32931.765,21312,-1211.450943
32955.427,21313,-1211.330139
32955.581,21314,-1212.768605
32981.802,21315,-1210.948688
32981.880,21316,-1212.781298
32981.951,21317,-1211.620140
33004.215,21318,-1211.484047
33004.359,21319,-1213.054928
33004.462,21320,-1211.396491
33030.297,21321,-1213.012088
33030.396,21322,-1213.038051
33030.655,21323,-1213.007256
33031.731,21324,-1212.991822
33057.027,21325,-1212.747690
33057.222,21326,-1211.825903
33057.364,21327,-1212.578132
33082.408,21328,-1212.354266
33083.128,21329,-1210.773432
33111.199,21330,-1210.990879
33111.274,21331,-1211.463997
33111.331,21332,-1211.465007
33119.489,21333,-1211.000832
33119.681,21334,-1212.502621
33119.805,21335,-1211.213735
33119.954,21336,-1211.325596
33147.433,21337,-1213.154528
33169.172,21338,-1211.238545
33169.257,21339,-1212.151821
33169.323,21340,-1212.168193
33169.386,21341,-1210.727779
33196.265,21342,4.725337
33225.583,21343,5.921835
33225.811,21344,-1210.382317
33225.933,21345,-1212.765360
33226.051,21346,-1211.735679
33226.164,21347,-1212.813032
33234.367,21348,-1212.830630
33234.456,21349,-1212.897486
33255.183,21350,-1212.993841
33255.321,21351,-1212.969175
33281.896,21352,-1212.932610
33282.061,21353,-1212.986412
33282.131,21354,-1212.871451
33309.617,21355,-1212.870297
33309.796,21356,-1212.846857
33328.439,21357,-1212.765576
33328.545,21358,-1212.226034
33328.622,21359,-1212.017458
33354.196,21360,-1212.617582
33354.270,21361,-1212.575752
33354.323,21362,-1212.415714
