timestamp_ms,sample_index,raw_ecg_mv
12.792,3184,-1219.189089
12.912,3185,-1219.115453
12.952,3186,-1218.871105
27.578,3187,-1218.789463
27.628,3188,-1218.765374
41.528,3189,-1218.661159
50.527,3190,-1218.860935
50.572,3191,-1218.926422
74.579,3192,-1219.241161
74.630,3193,-1219.540538
74.666,3194,-1219.741036
99.767,3195,-1220.083686
99.818,3196,-1220.192517
105.576,3197,-1220.343540
105.619,3198,-1220.436000
130.666,3199,-1220.447900
130.717,3200,-1220.574473
130.750,3201,-1220.501919
146.568,3202,-1220.589691
146.617,3203,-1220.594523
172.205,3204,-1220.531128
172.272,3205,-1220.672126
172.308,3206,-1220.565891
187.373,3207,-1220.605125
187.428,3208,-1220.574040
209.614,3209,-1220.474513
209.696,3210,-1220.576493
209.757,3211,-1220.468166
234.666,3212,-1220.492327
235.172,3213,-1220.493625
243.530,3214,-1220.367556
243.601,3215,-1220.442779
251.553,3216,-1220.398208
265.477,3217,-1220.423090
265.519,3218,-1220.414147
292.537,3219,-1220.359407
292.587,3220,-1220.501847
292.620,3221,-1220.431600
308.395,3222,-1220.470474
308.441,3223,-1220.494346
321.528,3224,-1220.458574
321.578,3225,-1220.519949
338.649,3226,-1220.456122
347.570,3227,-1220.510862
347.624,3228,-1220.569280
362.001,3229,-1220.462252
362.089,3230,-1220.597985
376.537,3231,-1220.523050
376.588,3232,-1220.532715
388.686,3233,-1220.439534
402.543,3234,-1220.340222
402.591,3235,-1220.524204
417.556,3236,-1220.232545
417.613,3237,-1220.218553
425.484,3238,-1220.268101
451.538,3239,-1220.320172
451.589,3240,-1220.526801
469.523,3241,-1220.509780
469.578,3242,-1220.641402
469.614,3243,-1220.663904
486.018,3244,-1220.673496
486.160,3245,-1220.783482
498.556,3246,-1220.711793
498.637,3247,-1220.763504
506.490,3248,-1220.771510
521.361,3249,-1220.688137
521.434,3250,-1220.783337
545.545,3251,-1220.241199
545.596,3252,-1218.227852
545.632,3253,-1215.118760
569.565,3254,-1217.114943
569.659,3255,-1220.612121
575.558,3256,-1221.519483
575.610,3257,-1221.657956
600.618,3258,-1221.156783
600.770,3259,-1220.711072
600.835,3260,-1220.726433
615.519,3261,-1220.631810
615.567,3262,-1220.512088
641.326,3263,-1220.578801
641.400,3264,-1220.513314
641.511,3265,-1220.502568
655.533,3266,-1220.338203
655.583,3267,-1220.292766
679.829,3268,-1220.370369
679.886,3269,-1220.186747
679.925,3270,-1220.145061
705.603,3271,-1220.098110
705.845,3272,-1219.900641
712.512,3273,-1219.943842
712.560,3274,-1219.746950
721.509,3275,-1219.614751
735.584,3276,-1219.409637
735.667,3277,-1219.155841
752.545,3278,-1219.166803
752.594,3279,-1218.923249
761.519,3280,-1218.882500
776.593,3281,-1218.885313
776.674,3282,-1218.830861
799.529,3283,-1219.143436
799.579,3284,-1219.238276
822.653,3285,-1219.563256
822.721,3286,-1219.845973
823.033,3287,-1220.047841
831.548,3288,-1220.304594
831.599,3289,-1220.402391
857.247,3290,-1220.564016
857.298,3291,-1220.687776
857.333,3292,-1220.591999
870.585,3293,-1220.796536
870.658,3294,-1220.743238
894.559,3295,-1220.731049
894.610,3296,-1220.789828
894.647,3297,-1220.723332
926.019,3298,-1220.875437
926.076,3299,-1220.740786
926.112,3300,-1220.813845
926.146,3301,-1220.779659
935.627,3302,-1220.668592
959.541,3303,-1220.841251
959.592,3304,-1220.642628
965.512,3305,-1220.624526
965.553,3306,-1220.548365
979.674,3307,-1220.639815
992.549,3308,-1220.804758
992.602,3309,-1220.627699
1006.551,3310,-1220.739776
1006.601,3311,-1220.698955
1030.605,3312,-1220.655249
1030.657,3313,-1220.790333
1030.692,3314,-1220.661596
1046.573,3315,-1220.715327
1046.640,3316,-1220.681790
1071.626,3317,-1220.809157
1071.680,3318,-1220.895631
1071.715,3319,-1220.806128
1089.030,3320,-1220.835986
1089.091,3321,-1220.789901
1109.775,3322,-1220.688281
1109.831,3323,-1220.760835
1109.867,3324,-1220.688281
1138.097,3325,-1220.571300
1138.857,3326,-1220.466363
1142.488,3327,-1220.518940
1142.528,3328,-1220.677030
1152.519,3329,-1220.697945
1166.579,3330,-1220.840169
1166.633,3331,-1220.906521
1189.867,3332,-1220.915320
1189.917,3333,-1220.992851
1189.952,3334,-1220.944024
1216.974,3335,-1220.992851
1217.078,3336,-1221.010016
1220.653,3337,-1220.999991
1220.700,3338,-1221.150797
1238.658,3339,-1220.927076
1247.738,3340,-1220.471123
1247.818,3341,-1218.220712
1261.682,3342,-1215.397150
1261.772,3343,-1217.995909
1285.636,3344,-1221.032662
1285.724,3345,-1221.623771
1286.383,3346,-1221.892784
1300.603,3347,-1221.522440
1300.650,3348,-1221.155269
1325.675,3349,-1220.906593
1325.728,3350,-1220.936019
1325.763,3351,-1220.823293
1350.559,3352,-1220.731266
1350.609,3353,-1220.769490
1369.601,3354,-1220.605774
1369.692,3355,-1220.632171
1369.730,3356,-1220.572382
1383.563,3357,-1220.438163
1383.612,3358,-1220.495428
1397.554,3359,-1220.325581
1397.606,3360,-1220.254758
1405.611,3361,-1220.269254
1430.564,3362,-1220.082964
1430.615,3363,-1220.008102
1439.082,3364,-1219.840780
1439.128,3365,-1219.643455
1446.566,3366,-1219.534551
1462.384,3367,-1219.346675
1462.439,3368,-1219.263014
1484.576,3369,-1219.201350
1485.104,3370,-1219.174304
1487.275,3371,-1219.263158
1500.549,3372,-1219.284794
1500.600,3373,-1219.617708
1524.609,3374,-1219.906555
1524.658,3375,-1220.115780
1547.565,3376,-1220.498673
1547.618,3377,-1220.550024
1547.654,3378,-1220.753335
1555.573,3379,-1220.876158
1555.631,3380,-1220.900247
1572.580,3381,-1221.036052
1572.637,3382,-1220.948207
1581.465,3383,-1221.066631
1595.594,3384,-1221.094398
1595.644,3385,-1221.004967
1619.683,3386,-1221.117910
1619.732,3387,-1221.033311
1619.767,3388,-1221.076007
1641.870,3389,-1221.069444
1641.928,3390,-1220.972440
1650.508,3391,-1221.083724
1650.544,3392,-1220.933495
1663.620,3393,-1220.911930
1677.609,3394,-1220.916185
1677.658,3395,-1220.837934
1691.594,3396,-1220.944601
1691.643,3397,-1220.854377
1715.712,3398,-1220.920801
1715.754,3399,-1220.914094
1715.786,3400,-1220.878322
1730.846,3401,-1221.020473
1730.894,3402,-1220.980734
1756.628,3403,-1221.000424
1756.687,3404,-1220.950588
1756.722,3405,-1220.867503
1781.698,3406,-1220.971359
1781.747,3407,-1220.820336
1806.672,3408,-1220.740064
1806.725,3409,-1220.739560
1806.760,3410,-1220.719582
1858.524,3411,-1220.919864
1858.597,3412,-1220.939697
1858.632,3413,-1221.101827
1858.666,3414,-1221.150869
1868.586,3415,-1221.153105
1875.720,3416,-1221.283645
1875.757,3417,-1221.225010
1875.790,3418,-1221.273765
1875.821,3419,-1221.249748
1902.774,3420,-1221.169693
1902.872,3421,-1221.305354
1902.925,3422,-1221.000640
1929.573,3423,-1220.175857
1929.639,3424,-1217.212091
1952.555,3425,-1215.901208
1954.463,3426,-1219.743921
1954.505,3427,-1221.794194
1979.734,3428,-1221.989788
1979.773,3429,-1222.088162
2004.555,3430,-1221.537874
2004.606,3431,-1221.254075
2004.642,3432,-1221.025089
2030.639,3433,-1221.110265
2030.677,3434,-1221.044995
2055.567,3435,-1220.885822
2055.616,3436,-1220.972512
2055.652,3437,-1220.861806
2088.078,3438,-1220.878754
2089.031,3439,-1220.813629
2092.480,3440,-1220.659793
2092.520,3441,-1220.686406
2092.554,3442,-1220.547139
2119.549,3443,-1220.463622
2119.620,3444,-1220.251585
2119.655,3445,-1220.158692
2119.688,3446,-1220.082532
2145.538,3447,-1219.841934
2171.577,3448,-1219.702451
2171.632,3449,-1219.498923
2171.667,3450,-1219.300228
2171.706,3451,-1219.369754
2189.220,3452,-1219.303330
2192.481,3453,-1219.391823
2192.520,3454,-1219.569891
2194.471,3455,-1219.801185
2194.508,3456,-1220.204057
2220.235,3457,-1220.361642
2220.315,3458,-1220.689507
2220.619,3459,-1220.795670
2246.511,3460,-1220.858272
2246.559,3461,-1221.040307
2270.783,3462,-1221.094398
2270.942,3463,-1221.080046
2271.004,3464,-1221.251551
2292.531,3465,-1221.126853
2292.577,3466,-1221.240661
2317.536,3467,-1221.265831
2317.585,3468,-1221.213976
2317.620,3469,-1221.308888
2344.498,3470,-1221.193998
2344.541,3471,-1221.217870
2344.576,3472,-1221.201282
2344.610,3473,-1221.089494
2371.645,3474,-1221.130603
2398.363,3475,-1221.023647
2398.425,3476,-1221.068002
2406.572,3477,-1221.008068
2406.619,3478,-1220.990615
2406.653,3479,-1221.043697
2432.635,3480,-1220.988740
2432.757,3481,-1221.040812
2435.694,3482,-1221.015353
2435.746,3483,-1220.916041
2459.678,3484,-1221.025522
2492.543,3485,-1220.956574
2492.593,3486,-1220.907387
2492.628,3487,-1220.778000
2492.662,3488,-1220.774827
2517.660,3489,-1220.955564
2517.710,3490,-1220.986865
2517.744,3491,-1221.129233
2542.616,3492,-1221.218015
2542.675,3493,-1221.250902
2577.954,3494,-1221.410940
2578.003,3495,-1221.322735
2579.612,3496,-1221.434812
2589.405,3497,-1221.388943
2589.456,3498,-1221.336005
2589.490,3499,-1221.479960
2589.523,3500,-1221.348555
2610.712,3501,-1221.079541
2610.759,3502,-1219.217433
2610.790,3503,-1215.886062
2637.888,3504,-1217.196224
2638.841,3505,-1220.827476
2638.881,3506,-1222.183074
2662.807,3507,-1222.314840
2662.855,3508,-1221.925960
2664.759,3509,-1221.594201
2664.797,3510,-1221.267995
2683.664,3511,-1221.284078
2691.824,3512,-1221.265110
2691.887,3513,-1221.174814
2710.679,3514,-1221.193133
2710.731,3515,-1221.053361
2710.767,3516,-1221.124545
2710.801,3517,-1221.003453
2737.828,3518,-1220.926283
2738.780,3519,-1220.918133
2738.821,3520,-1220.747421
2753.580,3521,-1220.725929
2753.633,3522,-1220.587239
2753.668,3523,-1220.451794
2760.511,3524,-1220.385226
2760.553,3525,-1220.101427
2760.587,3526,-1219.996635
2760.625,3527,-1219.759787
2767.642,3528,-1219.608692
2767.682,3529,-1219.569170
2767.715,3530,-1219.423124
2774.560,3531,-1219.531811
2774.599,3532,-1219.578329
2799.616,3533,-1219.781207
2824.666,3534,-1220.159341
2824.715,3535,-1220.347795
2824.749,3536,-1220.711432
2824.782,3537,-1220.925633
2853.564,3538,-1221.056462
2857.566,3539,-1221.249099
2857.606,3540,-1221.231429
2862.600,3541,-1221.368316
2862.639,3542,-1221.343146
2888.854,3543,-1221.346391
2912.698,3544,-1221.450318
2912.744,3545,-1221.378846
2914.569,3546,-1221.475705
2914.602,3547,-1221.451328
2944.620,3548,-1221.393486
2944.669,3549,-1221.462723
2944.702,3550,-1221.354757
2952.579,3551,-1221.363340
2952.628,3552,-1221.327567
2952.662,3553,-1221.235396
2952.695,3554,-1221.351656
2977.880,3555,-1221.203662
2979.689,3556,-1221.315090
2979.728,3557,-1221.261720
3005.639,3558,-1221.200561
3005.689,3559,-1221.326990
3039.190,3560,-1221.282996
3039.237,3561,-1221.234819
3039.273,3562,-1221.237559
3043.514,3563,-1221.155269
3043.558,3564,-1221.300882
3043.593,3565,-1221.139763
3050.577,3566,-1220.991769
3050.627,3567,-1221.140772
3074.592,3568,-1221.053144
3074.629,3569,-1221.310402
3100.570,3570,-1221.393703
3100.621,3571,-1221.432576
3100.655,3572,-1221.597230
3125.764,3573,-1221.505275
3125.812,3574,-1221.639421
3130.926,3575,-1221.632137
3130.973,3576,-1221.575233
3131.005,3577,-1221.698777
3141.515,3578,-1221.582157
3141.561,3579,-1221.713706
3165.720,3580,-1221.304921
3165.770,3581,-1219.764475
3195.461,3582,-1216.476017
3195.521,3583,-1216.551385
3195.555,3584,-1220.553991
3219.559,3585,-1222.403333
3219.606,3586,-1222.560775
3251.061,3587,-1222.274668
3251.117,3588,-1221.704980
3251.155,3589,-1221.582445
3257.528,3590,-1221.502534
3257.572,3591,-1221.423778
3257.606,3592,-1221.488182
3283.677,3593,-1221.305498
3283.778,3594,-1221.360887
3283.843,3595,-1221.248378
3283.908,3596,-1221.196234
3309.584,3597,-1221.237199
3309.635,3598,-1221.035907
3309.670,3599,-1221.067425
3339.193,3600,-1220.930610
3339.246,3601,-1220.787304
3345.471,3602,-1220.758095
3345.509,3603,-1220.495572
3345.543,3604,-1220.402463
3356.076,3605,-1220.217327
3356.147,3606,-1219.963747
3381.576,3607,-1219.872586
3381.627,3608,-1219.683843
3405.565,3609,-1219.769307
3405.637,3610,-1219.688171
3405.683,3611,-1219.754162
3431.586,3612,-1220.022094
3431.638,3613,-1220.188334
3457.532,3614,-1220.623372
3457.577,3615,-1220.816874
3457.610,3616,-1221.012468
3476.692,3617,-1221.284727
3476.760,3618,-1221.338313
3476.796,3619,-1221.491355
3502.563,3620,-1221.523305
3502.614,3621,-1221.529364
3529.593,3622,-1221.634589
3529.662,3623,-1221.559510
3529.697,3624,-1221.627521
3556.567,3625,-1221.576315
3556.618,3626,-1221.557779
3589.236,3627,-1221.642090
3589.290,3628,-1221.546745
3589.325,3629,-1221.617424
3590.480,3630,-1221.547250
3590.516,3631,-1221.476571
3615.542,3632,-1221.586556
3615.581,3633,-1221.466329
3640.641,3634,-1221.533763
3640.705,3635,-1221.485802
3640.742,3636,-1221.427239
3670.546,3637,-1221.503977
3670.596,3638,-1221.436543
3677.458,3639,-1221.514939
3677.496,3640,-1221.460560
3677.531,3641,-1221.463084
3702.858,3642,-1221.545807
3702.995,3643,-1221.346607
3703.074,3644,-1221.494240
3703.141,3645,-1221.430485
3728.540,3646,-1221.234963
3758.261,3647,-1221.259989
3758.347,3648,-1221.194575
3758.494,3649,-1221.398968
3758.662,3650,-1221.515228
3792.967,3651,-1221.603072
3793.046,3652,-1221.728203
3793.083,3653,-1221.656730
3816.668,3654,-1221.822754
3816.717,3655,-1221.778255
3842.559,3656,-1221.751787
3842.609,3657,-1221.872879
3842.643,3658,-1221.796718
3867.546,3659,-1221.788569
3867.594,3660,-1221.921849
3897.651,3661,-1221.568526
3897.851,3662,-1220.777351
3897.891,3663,-1217.600682
3897.929,3664,-1215.858296
3897.967,3665,-1219.743344
3923.417,3666,-1222.398718
3923.546,3667,-1222.853012
3923.584,3668,-1222.515483
3950.894,3669,-1221.973272
3951.966,3670,-1221.803282
3976.591,3671,-1221.613457
3976.645,3672,-1221.706711
3976.686,3673,-1221.584465
4000.565,3674,-1221.528859
4000.617,3675,-1221.577974
4025.557,3676,-1221.403439
4025.608,3677,-1221.444549
4025.646,3678,-1221.351656
4051.767,3679,-1221.271529
4051.826,3680,-1221.281842
4073.491,3681,-1221.101466
4073.580,3682,-1221.109544
4073.637,3683,-1220.931475
4097.577,3684,-1220.760619
4097.629,3685,-1220.678400
4097.664,3686,-1220.403473
4097.703,3687,-1220.320317
4125.732,3688,-1220.093278
4125.812,3689,-1219.944130
4125.850,3690,-1219.959420
4149.567,3691,-1219.851742
4149.616,3692,-1220.001034
4177.567,3693,-1220.091475
4177.619,3694,-1220.297021
4177.676,3695,-1220.701984
4191.543,3696,-1220.851492
4191.624,3697,-1221.193710
4191.667,3698,-1221.345309
4191.703,3699,-1221.475921
4193.963,3700,-1221.661563
4219.554,3701,-1221.627882
4219.605,3702,-1221.802344
4245.825,3703,-1221.713129
4245.943,3704,-1221.770466
4245.979,3705,-1221.841506
4270.589,3706,-1221.778039
4270.641,3707,-1221.850377
4298.594,3708,-1221.810566
4298.650,3709,-1221.782583
4298.690,3710,-1221.837034
4302.454,3711,-1221.696974
4302.490,3712,-1221.804075
4327.566,3713,-1221.710100
4327.614,3714,-1221.673751
4327.647,3715,-1221.745007
4355.876,3716,-1221.626367
4355.978,3717,-1221.752580
4379.574,3718,-1221.678150
4379.624,3719,-1221.670433
4379.659,3720,-1221.755104
4379.693,3721,-1221.650816
4379.727,3722,-1221.787198
4384.873,3723,-1221.730655
4384.965,3724,-1221.742771
4412.583,3725,-1221.841867
4412.635,3726,-1221.622617
4412.670,3727,-1221.702383
4420.850,3728,-1221.668991
4420.900,3729,-1221.599682
4446.507,3730,-1221.530590
4446.555,3731,-1221.420604
4470.583,3732,-1221.614828
4470.632,3733,-1221.699643
4470.665,3734,-1221.781429
4497.885,3735,-1221.943342
4497.938,3736,-1221.862782
4522.598,3737,-1222.043230
4522.649,3738,-1222.003203
4522.683,3739,-1222.009766
4528.757,3740,-1222.077344
4528.808,3741,-1221.957478
4553.553,3742,-1222.131435
4553.602,3743,-1222.081887
4553.637,3744,-1221.770250
4580.611,3745,-1220.559616
4580.660,3746,-1217.257311
4604.555,3747,-1217.109967
4604.606,3748,-1220.940058
4604.641,3749,-1222.660663
4635.788,3750,-1222.966531
4637.969,3751,-1222.656336
4640.565,3752,-1222.271784
4640.617,3753,-1221.960723
4640.652,3754,-1221.882976
4667.572,3755,-1221.929206
4667.624,3756,-1221.851603
4667.659,3757,-1221.816985
4667.693,3758,-1221.832491
4692.719,3759,-1221.660120
4695.482,3760,-1221.714644
4695.520,3761,-1221.603865
4719.636,3762,-1221.558861
4719.689,3763,-1221.529508
4739.589,3764,-1221.349636
4739.640,3765,-1221.372211
4739.674,3766,-1221.185416
4740.436,3767,-1221.089710
4740.469,3768,-1220.996962
4766.587,3769,-1220.706600
4766.635,3770,-1220.701840
4766.669,3771,-1220.442058
4791.684,3772,-1220.324283
4791.756,3773,-1220.311229
4821.657,3774,-1220.193743
4821.705,3775,-1220.323851
4821.740,3776,-1220.350463
4829.450,3777,-1220.593441
4829.533,3778,-1220.907603
4829.569,3779,-1221.069588
4829.603,3780,-1221.465680
4829.638,3781,-1221.593119
4855.725,3782,-1221.728059
4855.774,3783,-1221.870427
4855.808,3784,-1221.835953
4855.840,3785,-1222.018565
4880.722,3786,-1221.987624
4906.656,3787,-1222.006520
4906.707,3788,-1222.102514
4906.741,3789,-1222.021089
4906.775,3790,-1222.120472
4927.661,3791,-1222.019863
4930.601,3792,-1222.043951
4930.647,3793,-1222.073377
4955.594,3794,-1221.923941
4955.644,3795,-1221.998948
4955.678,3796,-1221.951564
4981.644,3797,-1221.918316
4981.693,3798,-1221.964978
5005.558,3799,-1221.841578
5005.609,3800,-1221.971109
5005.644,3801,-1221.876846
5025.627,3802,-1221.892784
5025.676,3803,-1222.005655
5031.657,3804,-1221.886582
5031.705,3805,-1222.015752
5031.738,3806,-1221.972407
5031.772,3807,-1221.969594
5031.804,3808,-1221.906343
5057.602,3809,-1221.805662
5060.486,3810,-1221.987192
5060.532,3811,-1221.820302
5060.567,3812,-1221.699571
5083.599,3813,-1221.778111
5119.579,3814,-1221.718827
5119.628,3815,-1221.992240
5119.663,3816,-1221.996567
5119.696,3817,-1222.085061
5146.513,3818,-1222.211346
5146.566,3819,-1222.143840
5146.607,3820,-1222.284116
5172.590,3821,-1222.215457
5172.645,3822,-1222.232405
5198.439,3823,-1222.299839
5198.496,3824,-1222.191296
5198.536,3825,-1222.319168
5220.531,3826,-1222.004717
5220.575,3827,-1220.744897
5227.174,3828,-1217.783150
5227.299,3829,-1217.523800
5227.360,3830,-1221.369975
5252.585,3831,-1222.852363
5252.636,3832,-1223.067718
5277.633,3833,-1223.047163
5277.682,3834,-1222.495000
5277.716,3835,-1222.313037
5302.561,3836,-1222.118525
5302.625,3837,-1222.099269
5337.770,3838,-1222.078065
5337.896,3839,-1221.935985
5337.936,3840,-1222.025272
5361.695,3841,-1221.880668
5361.746,3842,-1221.857661
5361.782,3843,-1221.836241
5361.816,3844,-1221.652764
5388.031,3845,-1221.709235
5390.532,3846,-1221.522801
5390.604,3847,-1221.450679
5414.628,3848,-1221.358147
5414.678,3849,-1221.131541
5414.712,3850,-1221.119136
5449.642,3851,-1220.893684
5449.695,3852,-1220.745546
5449.730,3853,-1220.622650
5449.763,3854,-1220.490524
5457.354,3855,-1220.454896
5457.427,3856,-1220.481653
5457.474,3857,-1220.440471
5481.545,3858,-1220.657052
5481.595,3859,-1220.770067
5481.629,3860,-1221.070886
5481.661,3861,-1221.389808
5481.694,3862,-1221.531455
5507.568,3863,-1221.868263
5507.618,3864,-1221.879370
5541.285,3865,-1221.998010
5541.376,3866,-1222.128694
5541.434,3867,-1222.074098
5541.490,3868,-1222.241853
5541.551,3869,-1222.172039
5545.592,3870,-1222.218053
5545.644,3871,-1222.240771
5547.466,3872,-1222.146148
5573.289,3873,-1222.238968
5573.341,3874,-1222.146004
5597.542,3875,-1222.185310
5597.592,3876,-1222.149393
5597.627,3877,-1222.006809
5624.641,3878,-1222.119246
5624.688,3879,-1221.995486
5650.556,3880,-1222.029527
5650.606,3881,-1222.023974
5656.510,3882,-1221.940024
5656.554,3883,-1222.074675
5656.588,3884,-1221.990509
5681.586,3885,-1222.016112
5681.636,3886,-1222.114919
5681.671,3887,-1222.020800
5707.557,3888,-1222.096095
5707.607,3889,-1221.956540
5732.554,3890,-1221.971181
5732.603,3891,-1222.028301
5734.669,3892,-1221.792319
5734.736,3893,-1221.858671
5734.796,3894,-1221.799748
5752.594,3895,-1221.880884
5752.644,3896,-1222.085493
5760.508,3897,-1222.104750
5760.551,3898,-1222.327894
5760.584,3899,-1222.291184
5789.099,3900,-1222.342968
5789.152,3901,-1222.363739
5789.192,3902,-1222.293997
5789.534,3903,-1222.417614
5815.533,3904,-1222.299911
5815.590,3905,-1222.356022
5815.626,3906,-1222.354074
5845.613,3907,-1221.815182
5845.706,3908,-1219.581647
5851.552,3909,-1216.454814
5877.564,3910,-1218.996668
5877.614,3911,-1222.381985
5902.550,3912,-1223.061515
5902.600,3913,-1223.285597
5902.635,3914,-1222.739348
5929.596,3915,-1222.350252
5929.648,3916,-1222.256927
5947.093,3917,-1222.136844
5947.150,3918,-1222.241709
5947.185,3919,-1222.048928
5947.218,3920,-1222.076695
5947.252,3921,-1222.050514
5950.587,3922,-1221.898698
5975.516,3923,-1221.969955
5975.590,3924,-1221.832635
5975.627,3925,-1221.783520
5975.661,3926,-1221.698777
6001.571,3927,-1221.503039
6001.620,3928,-1221.578334
6032.571,3929,-1221.323096
6032.618,3930,-1221.185848
6032.650,3931,-1221.085022
6039.510,3932,-1220.783482
6039.565,3933,-1220.732564
6039.616,3934,-1220.511006
6039.668,3935,-1220.487999
6066.365,3936,-1220.471051
6091.184,3937,-1220.398352
6091.243,3938,-1220.631521
6092.215,3939,-1220.779659
6092.250,3940,-1221.101250
6118.543,3941,-1221.411300
6120.462,3942,-1221.549702
6120.497,3943,-1221.898915
6127.535,3944,-1221.971613
6127.584,3945,-1222.086936
6127.618,3946,-1222.203989
6154.603,3947,-1222.151773
6154.651,3948,-1222.291761
6181.558,3949,-1222.251950
6181.608,3950,-1222.318807
6181.642,3951,-1222.350324
6181.675,3952,-1222.238896
6181.707,3953,-1222.316427
6206.587,3954,-1222.322846
6206.636,3955,-1222.208821
6220.574,3956,-1222.294790
6220.624,3957,-1222.165332
6220.659,3958,-1222.199085
6226.459,3959,-1222.202691
6226.495,3960,-1222.087441
6226.528,3961,-1222.149826
6226.561,3962,-1222.075108
6233.517,3963,-1222.103957
6235.910,3964,-1222.131868
6235.959,3965,-1222.034143
6241.877,3966,-1222.210264
6241.948,3967,-1222.147662
6266.635,3968,-1222.187546
6293.098,3969,-1222.211634
6293.196,3970,-1222.085133
6294.177,3971,-1222.138575
6294.283,3972,-1222.095158
6322.569,3973,-1222.097394
6324.563,3974,-1221.926249
6324.606,3975,-1221.820951
6330.510,3976,-1222.001616
6330.552,3977,-1222.031402
6355.810,3978,-1222.200455
6355.938,3979,-1222.327245
6379.581,3980,-1222.309431
6379.642,3981,-1222.511516
6379.677,3982,-1222.395400
6409.566,3983,-1222.468676
6409.616,3984,-1222.465214
6409.650,3985,-1222.400521
6419.803,3986,-1222.559044
6419.846,3987,-1222.487572
6425.552,3988,-1222.364388
6425.602,3989,-1221.817922
6449.605,3990,-1219.042177
6474.670,3991,-1216.454237
6474.718,3992,-1219.452982
6474.752,3993,-1222.732352
6474.785,3994,-1223.366085
6500.561,3995,-1223.213908
6526.767,3996,-1222.832962
6526.814,3997,-1222.375134
6526.846,3998,-1222.323567
6526.877,3999,-1222.286424
6534.779,4000,-1222.196489
6534.827,4001,-1222.305681
6534.895,4002,-1222.135257
6560.688,4003,-1222.147085
6560.738,4004,-1222.112323
6587.462,4005,-1221.974210
6587.512,4006,-1222.027219
6587.548,4007,-1221.873816
6610.608,4008,-1221.835376
6610.659,4009,-1221.748325
6638.808,4010,-1221.563116
6638.876,4011,-1221.548548
6638.929,4012,-1221.296483
6645.667,4013,-1221.205105
6645.725,4014,-1221.006121
6651.639,4015,-1220.768192
6651.686,4016,-1220.752902
6675.800,4017,-1220.566107
6700.720,4018,-1220.595821
6700.820,4019,-1220.643998
6700.888,4020,-1220.661813
6700.955,4021,-1221.028767
6726.639,4022,-1221.179790
6752.621,4023,-1221.530518
6752.699,4024,-1221.804003
6755.563,4025,-1221.903314
6755.611,4026,-1222.154225
6758.476,4027,-1222.187401
6785.231,4028,-1222.319817
6785.359,4029,-1222.366191
6785.402,4030,-1222.341020
6785.441,4031,-1222.493918
6810.561,4032,-1222.375278
6841.512,4033,-1222.502356
6841.561,4034,-1222.461175
6841.596,4035,-1222.335395
6841.630,4036,-1222.513680
6850.462,4037,-1222.360637
6850.500,4038,-1222.406074
6850.535,4039,-1222.414584
6850.568,4040,-1222.243873
6850.601,4041,-1222.326740
6875.766,4042,-1222.252167
6875.806,4043,-1222.392804
6901.578,4044,-1222.343184
6905.299,4045,-1222.249570
6905.342,4046,-1222.374845
6929.582,4047,-1222.278202
6929.631,4048,-1222.250724
6929.666,4049,-1222.196921
6957.499,4050,-1222.051164
6957.543,4051,-1222.002914
6966.602,4052,-1222.004501
6966.657,4053,-1222.082536
6996.387,4054,-1222.200455
7017.245,4055,-1222.273226
7017.293,4056,-1222.380255
7017.328,4057,-1222.441053
7017.362,4058,-1222.467305
7047.533,4059,-1222.655831
7047.580,4060,-1222.533513
7047.615,4061,-1222.524498
7056.463,4062,-1222.666000
7056.499,4063,-1222.502140
7081.791,4064,-1222.723842
7081.840,4065,-1222.741440
7081.875,4066,-1222.545990
7106.564,4067,-1221.581147
7106.612,4068,-1218.533359
7131.747,4069,-1217.436822
7131.794,4070,-1221.021411
7131.825,4071,-1223.172727
7159.829,4072,-1223.362551
7159.875,4073,-1223.410368
7164.755,4074,-1223.182031
7164.802,4075,-1222.679199
7164.834,4076,-1222.607870
7191.523,4077,-1222.556592
7191.572,4078,-1222.444803
7191.606,4079,-1222.491178
7191.640,4080,-1222.307989
7216.767,4081,-1222.318518
7216.814,4082,-1222.287073
7216.846,4083,-1222.183435
7251.586,4084,-1222.248777
7251.637,4085,-1222.081455
7251.672,4086,-1222.043879
7276.738,4087,-1221.855930
7276.786,4088,-1221.627665
7276.818,4089,-1221.605596
7276.849,4090,-1221.385409
7303.576,4091,-1221.388943
7303.628,4092,-1221.134714
7327.682,4093,-1220.936524
7355.562,4094,-1220.913878
7355.621,4095,-1220.757446
7355.655,4096,-1220.859642
7355.688,4097,-1220.842477
7363.713,4098,-1220.972296
7389.991,4099,-1221.402790
7390.038,4100,-1221.559222
7390.072,4101,-1221.935480
7390.105,4102,-1222.139585
7415.877,4103,-1222.189276
7448.748,4104,-1222.473075
7448.798,4105,-1222.421148
7448.832,4106,-1222.509641
7448.864,4107,-1222.502573
7456.579,4108,-1222.494928
7456.627,4109,-1222.682877
7456.660,4110,-1222.498318
7481.900,4111,-1222.663765
7481.947,4112,-1222.631959
7506.651,4113,-1222.495793
7506.703,4114,-1222.616813
7506.738,4115,-1222.465214
7533.886,4116,-1222.492692
7533.934,4117,-1222.462257
7561.745,4118,-1222.312677
7561.792,4119,-1222.482018
7561.825,4120,-1222.332438
7566.785,4121,-1222.401026
7566.832,4122,-1222.363522
7594.082,4123,-1222.305104
7594.151,4124,-1222.415089
7594.190,4125,-1222.351190
7616.725,4126,-1222.468820
7616.917,4127,-1222.355373
7641.519,4128,-1222.244954
7644.206,4129,-1222.306907
7644.254,4130,-1222.262985
7648.478,4131,-1222.191368
7648.527,4132,-1222.088883
7653.481,4133,-1222.108572
7653.520,4134,-1222.326524
7653.555,4135,-1222.313398
7657.457,4136,-1222.482162
7657.493,4137,-1222.440260
7662.477,4138,-1222.683959
7662.519,4139,-1222.748508
7662.553,4140,-1222.663909
7671.267,4141,-1222.790843
7671.365,4142,-1222.698527
7696.066,4143,-1222.663693
7696.115,4144,-1222.780746
7720.541,4145,-1222.594744
7720.591,4146,-1222.060251
7720.625,4147,-1219.236978
7746.536,4148,-1216.242560
7746.584,4149,-1219.427234
7776.597,4150,-1223.017954
7776.637,4151,-1223.735131
7776.670,4152,-1223.865960
7776.701,4153,-1223.157365
7776.732,4154,-1222.749806
7802.630,4155,-1222.525508
7802.723,4156,-1222.453746
7802.799,4157,-1222.478051
7827.711,4158,-1222.344987
7827.762,4159,-1222.471488
7854.586,4160,-1222.360998
7854.634,4161,-1222.248705
7854.667,4162,-1222.326596
7864.839,4163,-1222.124728
7864.887,4164,-1222.130065
7889.989,4165,-1222.030176
7890.036,4166,-1221.886582
7890.070,4167,-1221.885933
7915.568,4168,-1221.687094
7915.617,4169,-1221.637474
7941.540,4170,-1221.447722
7941.587,4171,-1221.203807
7941.621,4172,-1221.175030
7974.568,4173,-1220.930538
7974.616,4174,-1220.868946
7999.625,4175,-1220.824880
7999.696,4176,-1220.758095
7999.738,4177,-1220.913373
7999.773,4178,-1220.968979
7999.809,4179,-1221.300522
8025.583,4180,-1221.593263
8025.630,4181,-1221.784746
8061.576,4182,-1222.134103
8061.624,4183,-1222.198364
8061.658,4184,-1222.403406
8061.692,4185,-1222.455477
8061.725,4186,-1222.454035
8067.452,4187,-1222.585945
8067.486,4188,-1222.496226
8067.518,4189,-1222.580608
8094.566,4190,-1222.574550
8094.614,4191,-1222.528681
8119.590,4192,-1222.576137
8119.637,4193,-1222.475239
8119.671,4194,-1222.588181
8146.595,4195,-1222.501058
8146.687,4196,-1222.454756
8174.644,4197,-1222.505746
8174.699,4198,-1222.419994
8174.735,4199,-1222.473364
8200.557,4200,-1222.393958
8200.605,4201,-1222.354363
8200.639,4202,-1222.455117
8200.672,4203,-1222.310297
8227.702,4204,-1222.440548
8227.751,4205,-1222.394318
8227.786,4206,-1222.368715
8255.587,4207,-1222.491178
8255.641,4208,-1222.454540
8255.676,4209,-1222.550822
8255.710,4210,-1222.518223
8255.745,4211,-1222.462690
8266.553,4212,-1222.452593
8266.603,4213,-1222.261831
8266.638,4214,-1222.389702
8266.672,4215,-1222.304887
8296.839,4216,-1222.119895
8296.903,4217,-1222.177665
8296.938,4218,-1222.189565
8319.873,4219,-1222.382058
8319.930,4220,-1222.451366
8353.459,4221,-1222.569069
8353.598,4222,-1222.668236
8353.662,4223,-1222.661601
8358.583,4224,-1222.778799
8358.635,4225,-1222.733723
8382.613,4226,-1222.667010
8407.566,4227,-1222.774832
8407.616,4228,-1222.686988
8409.443,4229,-1222.814787
8409.478,4230,-1222.628786
8433.590,4231,-1221.894011
8462.608,4232,-1218.889135
8462.659,4233,-1216.349805
8462.694,4234,-1220.075969
8462.729,4235,-1223.453497
8469.543,4236,-1223.924595
8469.590,4237,-1223.451333
8469.624,4238,-1222.772380
8495.571,4239,-1222.642561
8495.625,4240,-1222.563155
8495.660,4241,-1222.471849
8495.693,4242,-1222.549885
8520.809,4243,-1222.416604
8520.875,4244,-1222.426629
8520.909,4245,-1222.382058
8551.617,4246,-1222.299839
8551.699,4247,-1222.325875
8551.756,4248,-1222.170381
8559.869,4249,-1222.196056
8559.920,4250,-1222.144489
8585.062,4251,-1221.976734
8585.361,4252,-1221.967647
8608.521,4253,-1221.805734
8610.472,4254,-1221.637041
8610.509,4255,-1221.559510
8635.632,4256,-1221.274630
8636.162,4257,-1221.242752
8651.547,4258,-1221.064540
8651.596,4259,-1220.944097
8651.631,4260,-1220.973522
8657.465,4261,-1220.878899
8657.502,4262,-1221.081272
8682.653,4263,-1221.190103
8682.704,4264,-1221.387572
8708.544,4265,-1221.708514
8708.599,4266,-1221.882327
8708.634,4267,-1222.175862
8733.286,4268,-1222.313686
8733.335,4269,-1222.420066
8733.377,4270,-1222.581258
8744.554,4271,-1222.552986
8744.603,4272,-1222.665928
8770.637,4273,-1222.656192
8770.689,4274,-1222.614938
8770.722,4275,-1222.676891
8795.541,4276,-1222.628569
8795.590,4277,-1222.709273
8820.565,4278,-1222.644220
8820.615,4279,-1222.619049
8820.649,4280,-1222.670760
8840.779,4281,-1222.552553
8840.858,4282,-1222.617607
8845.547,4283,-1222.608520
8845.602,4284,-1222.597773
8845.638,4285,-1222.625901
8871.956,4286,-1222.504015
8872.025,4287,-1222.612126
8872.060,4288,-1222.534234
8872.094,4289,-1222.565319
8897.554,4290,-1222.645734
8897.603,4291,-1222.574045
8897.639,4292,-1222.697085
8928.706,4293,-1222.622944
8928.808,4294,-1222.622944
8928.844,4295,-1222.740069
8928.879,4296,-1222.632752
8953.578,4297,-1222.734877
8955.500,4298,-1222.681795
8955.537,4299,-1222.564309
8980.547,4300,-1222.564165
8980.598,4301,-1222.544980
8980.633,4302,-1222.560054
9006.555,4303,-1222.378163
9006.605,4304,-1222.335323
9031.560,4305,-1222.462834
9031.609,4306,-1222.533585
9031.645,4307,-1222.735165
9050.547,4308,-1222.795531
9050.595,4309,-1222.843492
9050.630,4310,-1222.953477
9050.664,4311,-1222.875225
9077.571,4312,-1222.978864
9077.621,4313,-1222.945183
9077.655,4314,-1222.951891
9103.568,4315,-1223.033388
9103.621,4316,-1222.952972
9127.605,4317,-1222.806926
9129.486,4318,-1221.544221
9129.521,4319,-1218.340506
9148.666,4320,-1218.064713
9148.726,4321,-1221.834150
9155.527,4322,-1223.780929
9155.588,4323,-1223.913993
9155.623,4324,-1223.533191
9155.656,4325,-1223.124766
9155.689,4326,-1222.830438
9179.583,4327,-1222.880057
9179.630,4328,-1222.768557
9204.525,4329,-1222.712591
9204.574,4330,-1222.738050
9204.609,4331,-1222.595177
9239.767,4332,-1222.645590
9239.814,4333,-1222.565679
9242.517,4334,-1222.502861
9242.560,4335,-1222.453891
9242.596,4336,-1222.340948
9270.562,4337,-1222.335900
9270.612,4338,-1222.188700
9294.561,4339,-1222.040850
9294.611,4340,-1221.999597
9294.646,4341,-1221.783520
9324.638,4342,-1221.739382
9324.725,4343,-1221.532104
9328.525,4344,-1221.402646
9333.543,4345,-1221.360022
9333.580,4346,-1221.224217
9357.641,4347,-1221.368460
9357.731,4348,-1221.347833
9360.037,4349,-1221.386491
9360.086,4350,-1221.664520
9360.146,4351,-1221.845184
9385.041,4352,-1222.041499
9385.094,4353,-1222.327462
9385.134,4354,-1222.437663
9385.172,4355,-1222.717279
9385.210,4356,-1222.760696
9410.585,4357,-1222.842410
9410.648,4358,-1222.950809
9410.687,4359,-1222.872124
9410.840,4360,-1223.001222
9429.783,4361,-1223.003169
9429.837,4362,-1222.979080
9429.873,4363,-1222.987591
9434.566,4364,-1222.894554
9434.615,4365,-1223.023219
9434.648,4366,-1222.912873
9460.627,4367,-1222.847170
9460.675,4368,-1222.988673
9460.709,4369,-1222.818393
9460.741,4370,-1222.968334
9489.802,4371,-1222.865561
9489.852,4372,-1222.869095
9489.887,4373,-1222.918498
9512.599,4374,-1222.862027
9512.682,4375,-1222.902632
9540.489,4376,-1222.939846
9540.541,4377,-1222.812119
9546.430,4378,-1222.926287
9546.474,4379,-1222.951458
9546.508,4380,-1223.119429
9546.541,4381,-1222.990259
9546.575,4382,-1223.002881
9546.608,4383,-1222.973455
9572.534,4384,-1222.850920
9572.585,4385,-1222.900251
9598.662,4386,-1222.546783
9598.731,4387,-1222.674655
9598.767,4388,-1222.687565
9624.575,4389,-1222.797911
9624.629,4390,-1223.059352
9642.327,4391,-1223.080772
9642.727,4392,-1223.170203
9643.686,4393,-1223.221553
9649.632,4394,-1223.170419
9649.692,4395,-1223.237997
9673.561,4396,-1223.232444
9673.613,4397,-1223.227395
9673.648,4398,-1223.273120
9699.536,4399,-1223.140921
9699.584,4400,-1223.195085
9725.600,4401,-1222.543754
9725.690,4402,-1219.969661
9725.726,4403,-1218.009251
9735.717,4404,-1221.165798
9735.793,4405,-1223.687748
9762.593,4406,-1223.796074
9762.674,4407,-1224.047851
9765.518,4408,-1223.664452
9765.563,4409,-1223.223933
9765.598,4410,-1223.192488
9790.530,4411,-1223.016439
9790.582,4412,-1223.031729
9815.590,4413,-1223.108034
9815.640,4414,-1222.993433
9815.674,4415,-1223.017882
9842.550,4416,-1222.839164
9842.598,4417,-1222.831880
9846.490,4418,-1222.708047
9846.532,4419,-1222.635998
9871.584,4420,-1222.660086
9895.531,4421,-1222.550317
9895.580,4422,-1222.404055
9895.621,4423,-1222.260821
9895.655,4424,-1221.960651
9927.566,4425,-1222.025849
9956.745,4426,-1221.780491
9956.948,4427,-1221.627088
9983.575,4428,-1221.631488
9983.625,4429,-1221.471955
9983.660,4430,-1221.556698
10009.562,4431,-1221.570978
10009.609,4432,-1221.705412
10034.746,4433,-1221.898915
10034.800,4434,-1222.073233
10060.514,4435,-1222.422590
10060.589,4436,-1222.506107
10060.641,4437,-1222.771154
10085.555,4438,-1222.877677
10085.604,4439,-1222.957732
10085.638,4440,-1223.132844
10085.778,4441,-1223.082286
10085.819,4442,-1223.109909
10111.939,4443,-1223.146835
10111.991,4444,-1223.101831
10140.023,4445,-1223.188017
10140.073,4446,-1223.078536
10140.108,4447,-1222.989250
10162.635,4448,-1223.046081
10162.689,4449,-1223.024517
10194.562,4450,-1223.089571
10194.610,4451,-1223.094042
10194.644,4452,-1222.990620
10220.635,4453,-1223.028844
10220.692,4454,-1222.986148
10246.552,4455,-1222.949078
10246.600,4456,-1223.011391
10246.635,4457,-1222.881500
10271.990,4458,-1223.057332
10272.043,4459,-1222.972301
10289.604,4460,-1223.015430
10289.660,4461,-1222.999996
10289.701,4462,-1222.918282
10316.632,4463,-1222.985932
10316.686,4464,-1222.791276
10316.722,4465,-1222.737112
10316.756,4466,-1222.807431
10343.135,4467,-1222.992423
10343.275,4468,-1223.124910
10343.339,4469,-1223.175107
10366.570,4470,-1223.335506
10366.622,4471,-1223.483066
10381.573,4472,-1223.512564
10381.631,4473,-1223.440803
10381.666,4474,-1223.401136
10407.556,4475,-1223.307955
10407.604,4476,-1223.558073
10432.542,4477,-1223.380798
10432.592,4478,-1223.226241
10432.626,4479,-1222.293925
10460.564,4480,-1219.268062
10460.614,4481,-1217.988047
10470.452,4482,-1221.958920
10470.489,4483,-1224.440986
10470.523,4484,-1224.459810
10497.534,4485,-1224.179040
10497.582,4486,-1223.619520
10497.617,4487,-1223.313004
10497.651,4488,-1223.339184
10522.609,4489,-1223.162197
10525.587,4490,-1223.267783
10525.630,4491,-1223.219245
10550.453,4492,-1223.099379
10550.502,4493,-1223.124117
10550.537,4494,-1222.953405
10550.571,4495,-1222.910998
10550.604,4496,-1222.878759
10579.611,4497,-1222.714178
10579.669,4498,-1222.772596
10579.714,4499,-1222.571810
10579.748,4500,-1222.527599
10606.407,4501,-1222.385952
10606.474,4502,-1222.150042
10606.512,4503,-1222.075973
10631.852,4504,-1221.881533
10631.906,4505,-1221.719116
10665.306,4506,-1221.614756
10665.425,4507,-1221.584104
10665.493,4508,-1221.716303
10671.553,4509,-1221.693368
10671.603,4510,-1221.870283
10696.551,4511,-1222.084844
10696.606,4512,-1222.317509
10696.640,4513,-1222.601379
10723.258,4514,-1222.841112
10723.342,4515,-1223.014636
10723.436,4516,-1223.174025
10749.557,4517,-1223.137243
10749.609,4518,-1223.301825
10749.645,4519,-1223.332765
10749.678,4520,-1223.323101
10775.571,4521,-1223.326490
10775.624,4522,-1223.290285
10775.660,4523,-1223.305431
10783.509,4524,-1223.238718
10783.549,4525,-1223.251484
10783.584,4526,-1223.275140
10783.618,4527,-1223.122242
10783.652,4528,-1223.261653
10809.565,4529,-1223.133349
10809.617,4530,-1223.206191
10835.121,4531,-1223.216072
10835.177,4532,-1223.097865
10835.219,4533,-1223.211024
10860.645,4534,-1223.136810
10860.710,4535,-1222.969344
10879.546,4536,-1223.140128
10879.595,4537,-1223.113227
10879.630,4538,-1223.260860
10887.917,4539,-1223.147845
10887.959,4540,-1222.998265
10887.998,4541,-1222.919003
10888.036,4542,-1222.850632
10911.566,4543,-1222.598134
10911.617,4544,-1222.952395
10911.651,4545,-1223.527565
10938.694,4546,-1223.569973
10938.745,4547,-1223.631998
10938.785,4548,-1223.602933
10969.260,4549,-1223.591682
10969.422,4550,-1223.484220
10969.491,4551,-1223.578916
10969.560,4552,-1223.492586
10976.559,4553,-1223.660558
10976.607,4554,-1223.719553
10976.643,4555,-1223.216144
11001.646,4556,-1221.470512
11001.705,4557,-1218.345699
11025.566,4558,-1219.346963
11025.620,4559,-1223.224871
11025.655,4560,-1224.336482
11053.339,4561,-1224.683170
11053.996,4562,-1224.059174
11082.000,4563,-1223.586922
11082.055,4564,-1223.544009
11082.095,4565,-1223.417291
11088.831,4566,-1223.419671
11088.899,4567,-1223.385486
11097.639,4568,-1223.264538
11097.719,4569,-1223.263817
11118.311,4570,-1223.112505
11118.379,4571,-1223.168832
11118.420,4572,-1223.126064
11144.962,4573,-1222.983624
11145.074,4574,-1222.930254
11167.561,4575,-1222.770505
11167.611,4576,-1222.746560
11167.646,4577,-1222.498318
11183.515,4578,-1222.443938
11183.549,4579,-1222.377225
11188.608,4580,-1222.133238
11188.659,4581,-1222.012074
11188.699,4582,-1221.741618
11212.582,4583,-1221.801695
11212.634,4584,-1221.782510
11214.612,4585,-1221.835664
11214.654,4586,-1221.975724
11239.682,4587,-1222.095158
11270.693,4588,-1222.380038
11270.737,4589,-1222.654894
11270.769,4590,-1222.749950
11270.800,4591,-1222.630661
11296.727,4592,-1222.883375
11321.734,4593,-1223.344232
11321.780,4594,-1223.554034
11321.812,4595,-1223.571127
11321.843,4596,-1223.656519
11350.724,4597,-1223.464603
11375.794,4598,-1223.532037
11375.839,4599,-1223.542711
11375.870,4600,-1223.469508
11375.901,4601,-1223.503910
11389.702,4602,-1223.418518
11392.641,4603,-1223.433447
11392.685,4604,-1223.449386
11392.719,4605,-1223.314158
11417.720,4606,-1223.408853
11417.777,4607,-1223.390751
11419.688,4608,-1223.381735
11419.726,4609,-1223.344593
11444.726,4610,-1223.332981
11444.775,4611,-1223.450828
11469.713,4612,-1223.396304
11469.763,4613,-1223.345314
11469.795,4614,-1223.318773
11498.188,4615,-1223.237420
11498.237,4616,-1223.286319
11505.627,4617,-1223.165443
11505.675,4618,-1223.031369
11505.708,4619,-1223.139118
11531.756,4620,-1223.237420
11531.803,4621,-1223.329880
11531.834,4622,-1223.480109
11531.864,4623,-1223.661567
11557.699,4624,-1223.688541
11557.748,4625,-1223.647792
11557.782,4626,-1223.727270
11585.310,4627,-1223.606394
11585.360,4628,-1223.625867
11585.551,4629,-1223.618799
11605.639,4630,-1223.570838
11605.692,4631,-1223.622622
11605.727,4632,-1223.040023
11605.762,4633,-1220.802594
11631.806,4634,-1217.658740
11631.853,4635,-1220.185089
11631.886,4636,-1223.940822
11659.394,4637,-1224.711442
11659.487,4638,-1224.483970
11690.824,4639,-1223.833794
11690.876,4640,-1223.427244
11690.915,4641,-1223.440226
11693.919,4642,-1223.352887
11694.231,4643,-1223.344809
11699.509,4644,-1223.292088
11699.604,4645,-1223.247301
11699.641,4646,-1223.249897
11725.670,4647,-1223.201936
11725.720,4648,-1223.067069
11749.536,4649,-1223.093033
11749.614,4650,-1222.910925
11749.669,4651,-1222.912512
11775.627,4652,-1222.796973
11775.680,4653,-1222.617030
11800.561,4654,-1222.572891
11800.609,4655,-1222.473003
11800.643,4656,-1222.387899
11807.501,4657,-1222.247407
11807.539,4658,-1222.067319
11832.655,4659,-1222.038110
11832.707,4660,-1221.872374
11832.742,4661,-1221.923797
11858.516,4662,-1221.928340
11889.661,4663,-1221.872518
11889.721,4664,-1222.170741
11889.756,4665,-1222.221948
11916.853,4666,-1222.503583
11916.895,4667,-1222.855536
11916.927,4668,-1223.043124
11919.791,4669,-1223.266629
11919.838,4670,-1223.251628
11944.574,4671,-1223.389957
11944.624,4672,-1223.421547
11944.659,4673,-1223.342213
11970.727,4674,-1223.503044
11970.774,4675,-1223.373225
11995.562,4676,-1223.352382
11995.611,4677,-1223.395294
11995.647,4678,-1223.354906
12001.581,4679,-1223.454867
12001.619,4680,-1223.270235
12007.604,4681,-1223.347333
12007.666,4682,-1223.396665
12007.702,4683,-1223.240016
12012.760,4684,-1223.362984
12012.817,4685,-1223.245426
12012.851,4686,-1223.323317
12012.884,4687,-1223.342718
12018.694,4688,-1223.281342
12020.575,4689,-1223.411305
12020.615,4690,-1223.340049
12025.631,4691,-1223.325625
12025.669,4692,-1223.294252
12045.567,4693,-1223.282208
12045.616,4694,-1223.352815
12045.651,4695,-1223.053510
12047.476,4696,-1223.112794
12047.513,4697,-1223.194724
12071.616,4698,-1223.245714
12071.655,4699,-1223.464243
12071.687,4700,-1223.474556
12095.836,4701,-1223.656375
12095.961,4702,-1223.668491
12114.656,4703,-1223.579998
12114.707,4704,-1223.668780
12114.740,4705,-1223.589157
12139.527,4706,-1223.800690
12139.575,4707,-1223.763764
12139.610,4708,-1223.689839
12139.644,4709,-1223.596369
12154.648,4710,-1222.411844
12165.660,4711,-1219.539744
12165.702,4712,-1218.564588
12190.208,4713,-1222.305825
12190.251,4714,-1224.474378
12203.546,4715,-1224.590638
12208.526,4716,-1224.439039
12208.571,4717,-1223.866176
12227.773,4718,-1223.566872
12227.821,4719,-1223.646855
12271.612,4720,-1223.457391
12271.668,4721,-1223.467344
12271.703,4722,-1223.403156
12271.737,4723,-1223.297425
12271.770,4724,-1223.369835
12294.528,4725,-1223.204388
12294.577,4726,-1223.219822
12294.612,4727,-1223.142147
12301.538,4728,-1223.000428
12301.588,4729,-1223.039302
12320.620,4730,-1222.797695
12320.658,4731,-1222.799930
12325.773,4732,-1222.673429
12348.611,4733,-1222.453819
12348.670,4734,-1222.456199
12356.547,4735,-1222.229881
12356.596,4736,-1222.212139
12370.089,4737,-1222.098764
12382.598,4738,-1221.976590
12382.643,4739,-1222.261110
12396.493,4740,-1222.088667
12396.538,4741,-1222.328760
12405.463,4742,-1222.713673
12429.631,4743,-1222.814859
12429.680,4744,-1222.987230
12435.682,4745,-1223.184483
12435.902,4746,-1223.215135
12448.514,4747,-1223.536004
12463.517,4748,-1223.425225
12463.560,4749,-1223.517180
12477.683,4750,-1223.542350
12477.731,4751,-1223.585984
12500.546,4752,-1223.812013
12500.593,4753,-1223.663947
12500.628,4754,-1223.719048
12515.610,4755,-1223.677362
12515.742,4756,-1223.598966
12539.497,4757,-1223.710826
12539.545,4758,-1223.513718
12539.580,4759,-1223.559804
12564.593,4760,-1223.552303
12564.632,4761,-1223.445130
12570.725,4762,-1223.641878
12570.764,4763,-1223.539465
12583.684,4764,-1223.620242
12597.941,4765,-1223.588075
12597.993,4766,-1223.477297
12610.691,4767,-1223.595071
12610.743,4768,-1223.476575
12623.678,4769,-1223.442173
12639.000,4770,-1223.357863
12639.048,4771,-1223.357791
12652.634,4772,-1223.645340
12652.696,4773,-1223.542206
12661.561,4774,-1223.792757
12685.550,4775,-1223.830404
12685.599,4776,-1223.883197
12704.633,4777,-1224.038908
12704.704,4778,-1223.962315
12704.740,4779,-1224.060977
12719.609,4780,-1224.048500
12719.668,4781,-1223.992245
12733.603,4782,-1224.104683
12733.815,4783,-1224.004866
12746.516,4784,-1223.601129
12746.563,4785,-1221.278741
12755.521,4786,-1218.501121
12780.595,4787,-1221.156278
12780.647,4788,-1224.235295
12788.531,4789,-1224.773611
12788.574,4790,-1225.024666
12797.506,4791,-1224.571021
12810.528,4792,-1224.293281
12810.570,4793,-1224.024267
12834.827,4794,-1224.012439
12834.881,4795,-1224.018425
12834.921,4796,-1223.994409
12860.559,4797,-1223.953516
12860.610,4798,-1223.811797
12868.585,4799,-1223.834515
12868.651,4800,-1223.789728
12877.519,4801,-1223.658466
12890.493,4802,-1223.637984
12890.536,4803,-1223.463521
12914.891,4804,-1223.556342
12914.944,4805,-1223.398107
12914.980,4806,-1223.322307
12940.065,4807,-1223.225664
12940.112,4808,-1223.013843
12948.517,4809,-1223.014276
12948.557,4810,-1222.878759
12971.563,4811,-1222.764879
12971.616,4812,-1222.846088
12971.650,4813,-1222.655615
12988.677,4814,-1222.868951
12989.302,4815,-1223.043629
13000.559,4816,-1223.231001
13000.607,4817,-1223.502972
13013.575,4818,-1223.641301
13025.634,4819,-1223.918609
13025.691,4820,-1224.036023
13049.530,4821,-1224.146513
13049.582,4822,-1224.370162
13049.616,4823,-1224.293353
13074.558,4824,-1224.447477
13074.608,4825,-1224.451660
13080.651,4826,-1224.389563
13080.706,4827,-1224.477263
13095.041,4828,-1224.321552
13107.569,4829,-1224.427066
13107.619,4830,-1224.356531
13121.569,4831,-1224.337347
13121.620,4832,-1224.398939
13130.609,4833,-1224.275827
13160.543,4834,-1224.298185
13160.606,4835,-1224.284987
13160.643,4836,-1224.181564
13160.678,4837,-1224.298762
13185.840,4838,-1224.139806
13185.896,4839,-1224.151418
13185.937,4840,-1224.088455
13200.587,4841,-1224.112472
13200.641,4842,-1224.285708
13226.597,4843,-1224.314989
13226.649,4844,-1224.434279
13226.684,4845,-1224.588186
13240.549,4846,-1224.626915
13240.595,4847,-1224.796618
13264.594,4848,-1224.795969
13264.645,4849,-1224.794382
13264.680,4850,-1224.827774
13289.496,4851,-1224.786881
13289.544,4852,-1224.900256
13297.524,4853,-1224.836717
13297.563,4854,-1224.444376
13306.576,4855,-1222.617967
13321.173,4856,-1219.570252
13321.233,4857,-1221.227823
13344.525,4858,-1224.698604
13344.574,4859,-1225.317047
13346.473,4860,-1225.704413
13360.547,4861,-1225.566228
13360.628,4862,-1225.204249
13384.555,4863,-1224.890159
13384.679,4864,-1224.739569
13384.719,4865,-1224.792002
13409.764,4866,-1224.644441
13409.939,4867,-1224.709134
13416.623,4868,-1224.595831
13416.683,4869,-1224.571742
13440.500,4870,-1224.564097
13440.548,4871,-1224.360210
13440.582,4872,-1224.400742
13455.605,4873,-1224.272582
13455.654,4874,-1224.170674
13472.566,4875,-1224.150552
13472.616,4876,-1223.943707
13481.603,4877,-1223.935269
13495.551,4878,-1223.746310
13495.600,4879,-1223.610289
13518.618,4880,-1223.592835
13518.677,4881,-1223.430345
13520.651,4882,-1223.492226
13543.531,4883,-1223.481047
13543.580,4884,-1223.546894
13550.534,4885,-1223.736141
13550.575,4886,-1223.852329
13564.559,4887,-1224.198369
13577.573,4888,-1224.425552
13577.648,4889,-1224.567127
13615.541,4890,-1224.800152
13615.624,4891,-1224.813133
13615.660,4892,-1225.020700
13615.694,4893,-1225.019690
13615.727,4894,-1225.041398
13630.548,4895,-1225.149364
13630.595,4896,-1225.063396
13655.552,4897,-1225.148066
13655.673,4898,-1225.063972
13655.709,4899,-1225.054236
13670.564,4900,-1225.112005
13670.613,4901,-1224.956800
13698.206,4902,-1225.060366
13698.275,4903,-1224.962137
13698.311,4904,-1224.906387
13719.568,4905,-1224.922903
13719.621,4906,-1224.776135
13726.588,4907,-1224.897155
13726.638,4908,-1224.831524
13742.884,4909,-1224.681728
13753.674,4910,-1224.671054
13753.791,4911,-1224.636219
13765.548,4912,-1224.846526
13765.598,4913,-1224.919441
13779.985,4914,-1225.063900
13793.512,4915,-1225.241031
13793.569,4916,-1225.224515
13806.593,4917,-1225.388303
13806.686,4918,-1225.356786
13817.030,4919,-1225.373807
13838.623,4920,-1225.431576
13838.675,4921,-1225.340198
13846.339,4922,-1225.453213
13846.394,4923,-1225.347050
13870.674,4924,-1224.758682
13870.737,4925,-1222.391866
13870.772,4926,-1219.422907
13886.564,4927,-1222.214952
13890.436,4928,-1225.600990
13910.551,4929,-1226.193037
13910.604,4930,-1226.378461
13910.640,4931,-1225.805094
13927.622,4932,-1225.551659
13927.704,4933,-1225.356354
13941.572,4934,-1225.302334
13941.681,4935,-1225.312143
13951.540,4936,-1225.175400
13975.575,4937,-1225.242329
13975.624,4938,-1225.142946
13985.551,4939,-1225.087051
13985.602,4940,-1225.102990
13991.535,4941,-1224.950453
14014.571,4942,-1224.967257
14014.621,4943,-1224.947424
14021.621,4944,-1224.789189
14021.707,4945,-1224.766471
14033.550,4946,-1224.607803
14061.570,4947,-1224.464930
14061.669,4948,-1224.397424
14061.708,4949,-1224.209259
14061.793,4950,-1224.163678
14087.823,4951,-1224.004794
14087.877,4952,-1223.944140
14087.917,4953,-1224.042514
14101.503,4954,-1224.017848
14101.547,4955,-1224.223034
14116.632,4956,-1224.347011
14116.681,4957,-1224.549313
14128.525,4958,-1224.889799
14143.301,4959,-1225.001876
14143.391,4960,-1225.256970
14156.567,4961,-1225.315893
14156.617,4962,-1225.429773
14165.565,4963,-1225.532763
14190.545,4964,-1225.503914
14190.593,4965,-1225.583537
14195.450,4966,-1225.558366
14195.489,4967,-1225.599403
14209.666,4968,-1225.616352
14222.647,4969,-1225.510333
14222.698,4970,-1225.608996
14239.352,4971,-1225.540119
14239.410,4972,-1225.471243
14246.521,4973,-1225.431576
14269.641,4974,-1225.262091
14269.693,4975,-1225.257980
14276.640,4976,-1225.248892
14276.685,4977,-1225.201436
14288.939,4978,-1225.146552
14302.534,4979,-1224.977715
14302.585,4980,-1225.088566
14316.563,4981,-1225.146552
14316.611,4982,-1225.310268
14341.508,4983,-1225.461291
14341.574,4984,-1225.531249
14341.616,4985,-1225.692657
14358.530,4986,-1225.687752
14358.588,4987,-1225.656380
14371.567,4988,-1225.789660
14371.614,4989,-1225.676646
14381.557,4990,-1225.851036
14403.551,4991,-1225.803363
14403.603,4992,-1225.815696
14412.545,4993,-1225.304787
14412.591,4994,-1222.657274
14421.504,4995,-1219.376389
14435.619,4996,-1221.900141
14435.674,4997,-1225.734487
14459.558,4998,-1226.649062
14459.608,4999,-1226.573190
14459.644,5000,-1226.117814
14483.541,5001,-1225.762398
14483.597,5002,-1225.694460
14491.177,5003,-1225.742637
14503.531,5004,-1225.576180
14503.597,5005,-1225.594355
14517.554,5006,-1225.566660
14517.603,5007,-1225.475210
14531.544,5008,-1225.531104
14531.586,5009,-1225.381236
14555.558,5010,-1225.438572
14555.607,5011,-1225.299738
14555.642,5012,-1225.159173
14570.678,5013,-1225.133137
14570.732,5014,-1224.936317
14595.526,5015,-1224.940068
14595.573,5016,-1224.786665
14595.607,5017,-1224.617684
14610.546,5018,-1224.491183
14610.605,5019,-1224.332010
14633.555,5020,-1224.321120
14633.610,5021,-1224.252532
14637.146,5022,-1224.306479
14659.956,5023,-1224.450362
14660.006,5024,-1224.497673
14666.200,5025,-1224.795247
14666.334,5026,-1225.036134
14678.553,5027,-1225.306157
14693.534,5028,-1225.500813
14693.583,5029,-1225.576829
14706.565,5030,-1225.754176
14706.614,5031,-1225.755547
14715.615,5032,-1225.829976
14740.555,5033,-1225.897338
14740.631,5034,-1225.841588
14745.517,5035,-1225.981720
14745.563,5036,-1225.896977
14758.549,5037,-1225.909743
14772.640,5038,-1225.931884
14772.689,5039,-1225.819591
14785.960,5040,-1225.853127
14788.962,5041,-1225.861205
14810.588,5042,-1225.755763
14810.637,5043,-1225.852046
14810.671,5044,-1225.726554
14825.691,5045,-1225.644407
14825.743,5046,-1225.625656
14848.589,5047,-1225.593706
14848.638,5048,-1225.581878
14850.479,5049,-1225.399771
14873.657,5050,-1225.432730
14873.711,5051,-1225.527859
14881.635,5052,-1225.562910
14881.683,5053,-1225.793194
14893.544,5054,-1225.806320
14907.523,5055,-1225.920056
14907.569,5056,-1226.061775
14922.648,5057,-1225.987129
14922.697,5058,-1226.076921
14930.607,5059,-1226.034081
14954.587,5060,-1226.063650
14960.490,5061,-1226.100144
14960.539,5062,-1226.078003
14960.573,5063,-1225.912628
14974.586,5064,-1224.199018
14987.910,5065,-1220.774034
14987.962,5066,-1221.127935
15001.673,5067,-1225.070752
15001.732,5068,-1226.713034
15026.638,5069,-1226.954280
15026.689,5070,-1226.619203
15026.724,5071,-1226.168082
15041.590,5072,-1225.917748
15041.635,5073,-1225.954098
15056.102,5074,-1225.850387
15056.157,5075,-1225.841083
15068.654,5076,-1225.826370
15082.669,5077,-1225.706360
15082.718,5078,-1225.745233
15097.552,5079,-1225.604091
15097.600,5080,-1225.567309
15106.587,5081,-1225.538605
15129.643,5082,-1225.369263
15129.694,5083,-1225.367172
15136.546,5084,-1225.203456
15136.761,5085,-1225.114530
15149.568,5086,-1224.991779
15162.685,5087,-1224.788612
15162.770,5088,-1224.718654
15176.584,5089,-1224.511665
15176.636,5090,-1224.469618
15189.312,5091,-1224.441058
15208.588,5092,-1224.385019
15208.679,5093,-1224.552486
15217.620,5094,-1224.637157
15217.671,5095,-1224.858426
15241.545,5096,-1225.120155
15241.595,5097,-1225.290362
15241.630,5098,-1225.563487
15255.619,5099,-1225.662510
15255.662,5100,-1225.806104
15281.650,5101,-1225.889765
15281.700,5102,-1225.897266
15281.736,5103,-1226.055284
15295.602,5104,-1225.981432
15295.662,5105,-1226.059972
15318.559,5106,-1226.156038
15318.609,5107,-1225.975734
15321.473,5108,-1226.040716
15343.533,5109,-1225.924960
15343.584,5110,-1225.913060
15351.558,5111,-1225.949193
15351.607,5112,-1225.805455
15364.201,5113,-1225.775380
15378.645,5114,-1225.985038
15378.695,5115,-1225.839208
15392.539,5116,-1225.831779
15392.586,5117,-1225.855075
15424.554,5118,-1225.888900
15424.613,5119,-1225.871230
15424.649,5120,-1225.827164
15431.497,5121,-1225.879452
15431.540,5122,-1225.908949
15443.529,5123,-1226.038336
15458.544,5124,-1225.946381
15458.594,5125,-1225.907579
15471.628,5126,-1225.864450
15471.668,5127,-1225.859763
15497.597,5128,-1225.946164
15497.686,5129,-1225.848439
15499.816,5130,-1225.834953
15512.704,5131,-1225.885510
15512.757,5132,-1225.834231
15526.594,5133,-1225.738887
15526.651,5134,-1225.637123
15538.861,5135,-1225.705999
15560.806,5136,-1225.814759
15560.889,5137,-1225.839568
15566.645,5138,-1226.127190
15566.696,5139,-1226.092860
15578.627,5140,-1226.030763
15593.468,5141,-1226.210778
15593.518,5142,-1226.169020
15606.586,5143,-1226.196426
15606.637,5144,-1226.234939
15615.455,5145,-1226.153514
15640.071,5146,-1226.253763
15640.121,5147,-1226.281818
15647.502,5148,-1225.885726
15647.542,5149,-1224.078719
15655.481,5150,-1220.626617
15678.791,5151,-1222.079147
15678.851,5152,-1225.849954
15685.851,5153,-1227.132854
15685.902,5154,-1227.190767
15710.667,5155,-1226.647691
15710.712,5156,-1226.329346
15710.744,5157,-1226.061054
15726.631,5158,-1226.109448
15726.680,5159,-1226.008910
15748.526,5160,-1225.879307
15748.573,5161,-1226.030402
15751.463,5162,-1225.869499
15774.602,5163,-1225.882120
15774.648,5164,-1225.902386
15780.540,5165,-1225.649312
15780.573,5166,-1225.737084
15794.750,5167,-1225.537595
15808.689,5168,-1225.516103
15808.738,5169,-1225.409074
15822.620,5170,-1225.232088
15822.670,5171,-1225.192133
15831.594,5172,-1224.940428
15854.558,5173,-1224.818470
15854.607,5174,-1224.772168
15874.926,5175,-1224.621506
15874.981,5176,-1224.669828
15875.015,5177,-1224.373913
15890.604,5178,-1224.468176
15890.666,5179,-1224.572175
15902.568,5180,-1224.626555
15902.614,5181,-1224.966392
15927.675,5182,-1225.145831
15927.726,5183,-1225.405973
15927.760,5184,-1225.640585
15941.498,5185,-1225.695902
15941.564,5186,-1225.959651
15955.590,5187,-1225.871014
15955.634,5188,-1226.018214
15969.066,5189,-1226.036461
15982.646,5190,-1225.962175
15982.694,5191,-1226.060477
15996.514,5192,-1225.966575
15996.563,5193,-1226.055933
16005.507,5194,-1226.041221
16029.679,5195,-1225.943784
16029.717,5196,-1225.981287
16039.424,5197,-1225.870941
16039.493,5198,-1225.976527
16048.723,5199,-1225.995135
16062.828,5200,-1225.890270
16062.875,5201,-1225.976095
16075.922,5202,-1225.847358
16075.970,5203,-1225.930370
16088.898,5204,-1226.010497
16102.619,5205,-1225.828390
16102.672,5206,-1225.949626
16116.669,5207,-1225.890486
16116.708,5208,-1226.011290
16140.508,5209,-1226.041581
16140.562,5210,-1225.933687
16140.675,5211,-1226.057087
16156.651,5212,-1226.037037
16156.702,5213,-1226.070286
16180.592,5214,-1226.125386
16180.632,5215,-1226.031340
16180.664,5216,-1226.144499
16197.501,5217,-1226.047062
16197.549,5218,-1226.104760
16218.707,5219,-1226.081104
16218.754,5220,-1225.919479
16220.543,5221,-1226.017348
16245.715,5222,-1225.968161
16245.775,5223,-1225.872817
16251.670,5224,-1225.764778
16251.721,5225,-1225.722082
16263.638,5226,-1225.993043
16277.750,5227,-1225.951718
16277.788,5228,-1226.113703
16302.574,5229,-1226.187844
16302.627,5230,-1226.151567
16302.662,5231,-1226.333097
16331.889,5232,-1226.234795
16331.946,5233,-1226.297685
16331.979,5234,-1226.294872
16332.010,5235,-1226.170390
16341.497,5236,-1226.375432
16356.605,5237,-1226.247488
16356.654,5238,-1226.061703
16379.782,5239,-1225.109842
16379.829,5240,-1221.829317
16403.599,5241,-1221.170847
16403.648,5242,-1224.938192
16403.681,5243,-1226.857205
16412.545,5244,-1227.243704
16412.589,5245,-1226.842636
16426.577,5246,-1226.419498
16426.626,5247,-1226.180055
16435.712,5248,-1226.040283
16459.590,5249,-1226.144499
16459.646,5250,-1226.017997
16465.483,5251,-1226.028527
16465.523,5252,-1225.970830
16478.587,5253,-1225.885149
16493.154,5254,-1225.886015
16493.433,5255,-1225.716673
16506.525,5256,-1225.699508
16506.568,5257,-1225.639936
16517.010,5258,-1225.484153
16530.558,5259,-1225.558871
16530.606,5260,-1225.311278
16554.555,5261,-1225.228915
16554.602,5262,-1225.081570
16554.636,5263,-1224.931990
16579.727,5264,-1224.873067
16579.775,5265,-1224.599509
16585.627,5266,-1224.655836
16585.669,5267,-1224.631675
16598.615,5268,-1224.578522
16612.474,5269,-1224.781111
16612.510,5270,-1224.774548
16626.919,5271,-1225.006419
16626.964,5272,-1225.232088
16640.544,5273,-1225.477302
16640.590,5274,-1225.759586
16653.647,5275,-1225.790742
16667.667,5276,-1225.961454
16667.706,5277,-1226.034297
16681.921,5278,-1226.049082
16681.969,5279,-1226.214096
16691.516,5280,-1226.151350
16714.725,5281,-1226.191234
16714.774,5282,-1226.210418
16720.708,5283,-1226.119473
16720.746,5284,-1226.247993
16733.608,5285,-1226.079589
16749.634,5286,-1226.180704
16749.695,5287,-1226.146807
16762.609,5288,-1226.009415
16770.517,5289,-1226.111179
16770.560,5290,-1225.947318
16793.566,5291,-1226.011795
16793.649,5292,-1225.999174
16800.641,5293,-1225.919119
16800.715,5294,-1226.071584
16813.656,5295,-1225.956622
16827.663,5296,-1226.010929
16827.712,5297,-1226.037182
16841.528,5298,-1226.020810
16841.575,5299,-1226.138873
16856.469,5300,-1226.038985
16856.510,5301,-1226.114136
16868.714,5302,-1226.104327
16882.806,5303,-1226.054275
16882.854,5304,-1226.194046
16896.683,5305,-1226.061270
16896.732,5306,-1226.173852
16907.032,5307,-1226.149619
16924.643,5308,-1226.074829
16924.681,5309,-1226.128416
16940.265,5310,-1225.957920
16940.327,5311,-1226.039201
16946.693,5312,-1226.031773
16961.678,5313,-1225.784107
16961.727,5314,-1225.867768
16985.743,5315,-1225.802137
16988.306,5316,-1225.989004
16988.487,5317,-1226.105553
17011.129,5318,-1226.098701
17011.263,5319,-1226.306195
17015.971,5320,-1226.262634
17016.081,5321,-1226.335260
17028.694,5322,-1226.370456
17045.050,5323,-1226.315788
17045.985,5324,-1226.438178
17056.503,5325,-1226.303743
17056.542,5326,-1226.432769
17080.650,5327,-1226.362378
17080.699,5328,-1225.822259
17080.733,5329,-1223.419239
17096.520,5330,-1220.728381
17096.566,5331,-1223.730804
17120.714,5332,-1226.601389
17120.803,5333,-1227.119439
17120.870,5334,-1227.287843
17145.130,5335,-1226.674376
17145.178,5336,-1226.438034
17151.475,5337,-1226.371826
17151.512,5338,-1226.178684
17163.510,5339,-1226.239194
17177.607,5340,-1226.140748
17177.655,5341,-1226.053770
17191.462,5342,-1226.072738
17191.499,5343,-1226.031268
17200.566,5344,-1226.061847
17224.892,5345,-1225.938014
17230.671,5346,-1225.830265
17230.711,5347,-1225.892578
17230.744,5348,-1225.638277
17241.550,5349,-1225.596951
17263.714,5350,-1225.464031
17263.763,5351,-1225.330101
17270.654,5352,-1225.238723
17270.695,5353,-1225.020555
17284.684,5354,-1224.920306
17298.991,5355,-1224.806138
17299.114,5356,-1224.675742
17311.605,5357,-1224.734593
17311.651,5358,-1224.692907
17325.617,5359,-1224.833832
17325.663,5360,-1224.907541
17335.860,5361,-1225.128089
17359.554,5362,-1225.451554
17359.605,5363,-1225.600197
17367.557,5364,-1225.878226
17367.592,5365,-1226.024056
17376.551,5366,-1226.146013
17391.527,5367,-1226.294512
17391.577,5368,-1226.283116
17414.418,5369,-1226.440919
17414.479,5370,-1226.423249
17414.515,5371,-1226.431182
17440.029,5372,-1226.469767
17440.103,5373,-1226.408392
17447.819,5374,-1226.497534
17447.927,5375,-1226.400314
17456.605,5376,-1226.306628
17471.577,5377,-1226.348242
17471.627,5378,-1226.347016
17494.887,5379,-1226.355166
17495.028,5380,-1226.289968
17495.090,5381,-1226.253619
17518.559,5382,-1226.323577
17518.612,5383,-1226.216909
17527.554,5384,-1226.288526
17527.601,5385,-1226.292564
17553.022,5386,-1226.272370
17553.075,5387,-1226.351560
17553.110,5388,-1226.277130
17566.700,5389,-1226.384808
17566.797,5390,-1226.377307
17582.585,5391,-1226.375649
17582.637,5392,-1226.484624
17591.650,5393,-1226.323144
17606.185,5394,-1226.330284
17606.239,5395,-1226.291843
17629.565,5396,-1226.293358
17629.615,5397,-1226.215106
17629.650,5398,-1226.123223
17653.542,5399,-1226.191306
17653.590,5400,-1226.269125
17662.676,5401,-1226.370384
17671.559,5402,-1226.519026
17671.654,5403,-1226.542250
17688.803,5404,-1226.651153
17688.884,5405,-1226.653677
17708.596,5406,-1226.651947
17708.658,5407,-1226.705244
17710.990,5408,-1226.638027
17734.556,5409,-1226.725655
17734.610,5410,-1226.719092
17755.529,5411,-1226.544774
17755.583,5412,-1225.896689
17781.554,5413,-1223.070891
17781.603,5414,-1221.471234
17781.638,5415,-1224.904079
17806.559,5416,-1227.046091
17806.608,5417,-1227.358017
17830.589,5418,-1227.515387
17830.640,5419,-1227.135089
17830.677,5420,-1226.749671
17845.559,5421,-1226.550399
17845.608,5422,-1226.606510
17851.449,5423,-1226.486932
17851.484,5424,-1226.518810
17851.517,5425,-1226.418200
17877.589,5426,-1226.366489
17877.642,5427,-1226.368509
17877.676,5428,-1226.220371
17877.709,5429,-1226.216909
17905.685,5430,-1226.108943
17928.584,5431,-1225.976311
17928.645,5432,-1225.977898
17930.462,5433,-1225.799685
17930.497,5434,-1225.659553
17956.707,5435,-1225.534566
17976.554,5436,-1225.436192
17976.604,5437,-1225.335294
17976.638,5438,-1225.138402
17976.671,5439,-1225.031518
18002.563,5440,-1224.996034
18002.632,5441,-1224.928456
18002.668,5442,-1225.027479
18027.627,5443,-1225.109193
18027.678,5444,-1225.281059
18053.566,5445,-1225.558150
18053.617,5446,-1225.839208
18053.653,5447,-1226.100865
18077.695,5448,-1226.293574
18077.747,5449,-1226.411205
18102.568,5450,-1226.542466
18102.617,5451,-1226.573983
18102.651,5452,-1226.682238
18129.664,5453,-1226.690964
18129.713,5454,-1226.720751
18154.778,5455,-1226.763158
18154.844,5456,-1226.733011
18154.880,5457,-1226.796622
18189.025,5458,-1226.693489
18194.462,5459,-1226.681805
18194.523,5460,-1226.727458
18194.559,5461,-1226.634205
18218.640,5462,-1226.659303
18244.390,5463,-1226.588552
18244.445,5464,-1226.505540
18244.480,5465,-1226.567564
18244.514,5466,-1226.484696
18270.567,5467,-1226.577517
18285.630,5468,-1226.549462
18286.213,5469,-1226.538860
18288.134,5470,-1226.595115
18288.175,5471,-1226.489240
18293.740,5472,-1226.498472
18293.905,5473,-1226.519315
18294.008,5474,-1226.492702
18318.654,5475,-1226.353291
18318.705,5476,-1226.251094
18349.493,5477,-1226.373557
18349.546,5478,-1226.459814
18349.581,5479,-1226.562083
18369.563,5480,-1226.681084
18369.612,5481,-1226.702720
18398.009,5482,-1226.817466
18398.081,5483,-1226.817826
18398.122,5484,-1226.862470
18403.621,5485,-1226.848622
18403.680,5486,-1226.831674
18403.716,5487,-1226.941371
18403.750,5488,-1226.887063
18428.572,5489,-1226.665505
18430.461,5490,-1225.925537
18430.496,5491,-1222.992928
18455.691,5492,-1221.581003
18455.743,5493,-1225.089359
18480.602,5494,-1227.326428
18480.656,5495,-1227.563852
18480.692,5496,-1227.646936
18507.594,5497,-1227.230867
18507.647,5498,-1226.896655
18512.524,5499,-1226.731713
18512.567,5500,-1226.750104
18512.600,5501,-1226.642282
18515.563,5502,-1226.668679
18515.617,5503,-1226.566338
18540.534,5504,-1226.486499
18540.583,5505,-1226.459670
18540.617,5506,-1226.367499
18565.574,5507,-1226.353868
18565.624,5508,-1226.220226
18590.521,5509,-1226.175944
18590.569,5510,-1226.078363
18590.604,5511,-1225.925249
18618.559,5512,-1225.847213
18618.609,5513,-1225.677367
18623.459,5514,-1225.451410
18623.494,5515,-1225.321447
18653.542,5516,-1225.113736
18653.610,5517,-1225.065415
18653.646,5518,-1224.971729
18653.681,5519,-1224.990553
18653.715,5520,-1225.098951
18678.713,5521,-1225.213985
18681.632,5522,-1225.565146
18681.695,5523,-1225.810071
18711.570,5524,-1226.099206
18711.624,5525,-1226.337424
18711.659,5526,-1226.458733
18738.526,5527,-1226.638532
18738.580,5528,-1226.662909
18738.908,5529,-1226.725655
18738.949,5530,-1226.815374
18765.675,5531,-1226.806431
18765.726,5532,-1226.873504
18765.760,5533,-1226.873071
18784.931,5534,-1226.844583
18785.197,5535,-1226.908411
18789.845,5536,-1226.860017
18789.881,5537,-1226.842997
18789.916,5538,-1226.866941
18791.451,5539,-1226.734093
18791.487,5540,-1226.768928
18797.534,5541,-1226.717000
18797.581,5542,-1226.676179
18797.615,5543,-1226.689450
18805.105,5544,-1226.602904
18805.156,5545,-1226.664856
18829.561,5546,-1226.652596
18829.612,5547,-1226.671491
18829.648,5548,-1226.748878
18855.582,5549,-1226.684762
18855.631,5550,-1226.802032
18887.301,5551,-1226.760345
18887.353,5552,-1226.731785
18887.667,5553,-1226.751402
18891.475,5554,-1226.609539
18891.512,5555,-1226.704090
18916.599,5556,-1226.605140
18916.649,5557,-1226.473013
18945.677,5558,-1226.494433
18945.744,5559,-1226.483831
18945.779,5560,-1226.695652
18968.544,5561,-1226.723635
18968.592,5562,-1226.855762
18988.311,5563,-1226.929543
18988.364,5564,-1226.925720
18988.414,5565,-1227.001448
18990.880,5566,-1227.011401
18990.931,5567,-1227.019190
18996.959,5568,-1227.055756
18997.006,5569,-1226.997914
19020.649,5570,-1227.090374
19020.704,5571,-1226.729477
19020.739,5572,-1225.295122
19071.563,5573,-1221.945505
19071.622,5574,-1222.017843
19071.658,5575,-1225.984389
19071.692,5576,-1227.693383
19071.725,5577,-1227.938524
19098.927,5578,-1227.612607
19098.976,5579,-1227.107034
19117.573,5580,-1226.955939
19117.622,5581,-1226.872783
19117.669,5582,-1226.830952
19122.710,5583,-1226.811335
19122.769,5584,-1226.717000
19148.543,5585,-1226.705966
19148.595,5586,-1226.629517
19148.631,5587,-1226.588407
19173.573,5588,-1226.552707
19173.622,5589,-1226.485346
19199.568,5590,-1226.433490
19199.618,5591,-1226.299560
19199.653,5592,-1226.237536
19221.530,5593,-1226.125603
19221.574,5594,-1225.888251
19246.570,5595,-1225.799613
19246.619,5596,-1225.643614
19246.654,5597,-1225.471388
19273.646,5598,-1225.334789
19273.699,5599,-1225.151600
19301.565,5600,-1225.199561
19301.613,5601,-1225.220549
19301.647,5602,-1225.291516
19313.494,5603,-1225.442250
19313.630,5604,-1225.649528
19340.469,5605,-1225.985182
19340.557,5606,-1226.192820
19340.621,5607,-1226.439476
19363.590,5608,-1226.605067
19363.640,5609,-1226.667525
19390.142,5610,-1226.860522
19390.191,5611,-1226.878481
19390.226,5612,-1226.915695
19410.624,5613,-1226.976133
19410.677,5614,-1226.939351
19437.909,5615,-1227.016882
19441.532,5616,-1226.967911
19441.597,5617,-1226.997914
19441.633,5618,-1227.002313
19441.667,5619,-1226.875668
19461.624,5620,-1226.955867
19461.680,5621,-1226.909565
19487.652,5622,-1226.880067
19488.427,5623,-1226.838886
19488.469,5624,-1226.757749
19505.574,5625,-1226.831097
19505.635,5626,-1226.788040
19530.986,5627,-1226.803835
19531.103,5628,-1226.823380
19555.603,5629,-1226.782631
19580.749,5630,-1226.841554
19580.887,5631,-1226.859945
19580.934,5632,-1226.863696
19580.978,5633,-1226.914037
19599.934,5634,-1226.864705
19623.536,5635,-1226.942741
19623.585,5636,-1226.828933
19625.460,5637,-1226.734814
19625.495,5638,-1226.844439
19650.552,5639,-1226.758542
19676.836,5640,-1226.585306
19676.890,5641,-1226.616895
19676.925,5642,-1226.600884
19676.960,5643,-1226.808306
19700.648,5644,-1226.850786
19700.712,5645,-1226.987889
19700.747,5646,-1227.078979
19706.565,5647,-1227.076815
19706.615,5648,-1227.189974
19731.592,5649,-1227.102779
19731.640,5650,-1227.109126
19755.574,5651,-1227.167472
19755.624,5652,-1227.132060
19755.659,5653,-1227.263249
19781.573,5654,-1226.961132
19781.624,5655,-1225.893588
19802.539,5656,-1222.666289
19802.589,5657,-1221.615477
19802.624,5658,-1225.602721
19828.575,5659,-1227.776467
19828.625,5660,-1228.056227
19828.660,5661,-1227.827457
19854.541,5662,-1227.252792
19854.590,5663,-1227.114679
19879.610,5664,-1227.000943
19879.661,5665,-1226.961637
19879.695,5666,-1226.985076
19906.595,5667,-1226.882087
19906.649,5668,-1226.917282
19932.643,5669,-1226.832034
19932.694,5670,-1226.742603
19932.729,5671,-1226.693921
19932.763,5672,-1226.555376
19957.556,5673,-1226.584946
19982.578,5674,-1226.487437
19982.631,5675,-1226.401035
19982.666,5676,-1226.262057
19982.699,5677,-1226.108943
19982.733,5678,-1225.986985
20002.539,5679,-1225.771918
20002.590,5680,-1225.670155
20007.441,5681,-1225.511054
20007.477,5682,-1225.331832
20007.510,5683,-1225.350295
20016.543,5684,-1225.294690
20016.606,5685,-1225.366739
20016.666,5686,-1225.558294
20042.538,5687,-1225.729367
20042.599,5688,-1226.110890
20042.634,5689,-1226.329058
20042.668,5690,-1226.564319
20068.611,5691,-1226.787824
20068.693,5692,-1226.817970
20068.757,5693,-1226.959401
20094.550,5694,-1227.018757
20094.601,5695,-1227.069675
20094.636,5696,-1227.125641
20094.670,5697,-1227.120449
20126.575,5698,-1227.229424
20126.626,5699,-1227.184276
20126.670,5700,-1227.198196
20136.493,5701,-1227.133647
20136.550,5702,-1227.054169
20136.592,5703,-1227.136027
20136.632,5704,-1227.054097
20136.671,5705,-1227.055539
20163.338,5706,-1227.079628
20163.800,5707,-1227.001809
20163.921,5708,-1227.070901
20163.960,5709,-1226.964738
20188.536,5710,-1226.924350
20213.628,5711,-1227.025681
20213.705,5712,-1226.922403
20213.770,5713,-1227.029287
20213.833,5714,-1226.990485
20233.571,5715,-1226.999140
20242.396,5716,-1227.035561
20242.490,5717,-1226.949881
20242.558,5718,-1226.987168
20242.615,5719,-1226.978081
20265.579,5720,-1226.833477
20265.628,5721,-1226.710798
20265.660,5722,-1226.643076
20291.546,5723,-1226.807441
20291.594,5724,-1226.874947
20316.682,5725,-1227.043783
20316.731,5726,-1227.171150
20316.765,5727,-1227.139633
20325.544,5728,-1227.302916
20325.588,5729,-1227.220049
20350.556,5730,-1227.257335
20350.607,5731,-1227.253008
20350.641,5732,-1227.197475
20375.654,5733,-1227.313013
20375.715,5734,-1227.334794
20400.550,5735,-1227.176415
20400.605,5736,-1226.749599
20400.642,5737,-1224.073021
20425.688,5738,-1221.455800
20425.739,5739,-1224.555154
20440.538,5740,-1227.246517
20440.588,5741,-1227.971917
20440.624,5742,-1228.029037
20467.107,5743,-1227.623208
20492.516,5744,-1227.321452
20492.573,5745,-1227.055756
20492.608,5746,-1227.164731
20518.176,5747,-1227.036571
20544.687,5748,-1227.093619
20545.415,5749,-1227.090734
20546.422,5750,-1226.847901
20546.458,5751,-1226.986591
20550.469,5752,-1226.844583
20575.579,5753,-1226.772101
20575.630,5754,-1226.729982
20575.665,5755,-1226.585090
20575.698,5756,-1226.569511
20601.510,5757,-1226.345357
20627.653,5758,-1226.299632
20627.703,5759,-1226.241142
20627.738,5760,-1225.931163
20627.771,5761,-1225.880534
20652.553,5762,-1225.712923
20652.601,5763,-1225.603370
20652.636,5764,-1225.512785
20658.493,5765,-1225.444630
20658.527,5766,-1225.574810
20660.466,5767,-1225.607193
20660.500,5768,-1225.931956
20688.138,5769,-1226.186834
20688.280,5770,-1226.403343
20688.318,5771,-1226.799363
20711.539,5772,-1226.849488
20711.582,5773,-1227.078330
20737.340,5774,-1227.171871
20737.446,5775,-1227.087850
20737.485,5776,-1227.307604
20762.549,5777,-1227.240531
20762.597,5778,-1227.307316
20792.750,5779,-1227.374100
20792.813,5780,-1227.266495
20792.848,5781,-1227.408935
20814.654,5782,-1227.298228
20814.706,5783,-1227.294045
20845.566,5784,-1227.317846
20845.615,5785,-1227.180310
20845.653,5786,-1227.274789
20850.474,5787,-1227.189974
20850.507,5788,-1227.241613
20902.132,5789,-1227.281640
20902.183,5790,-1227.156365
20902.217,5791,-1227.298301
20927.805,5792,-1227.133214
20927.852,5793,-1227.202307
20942.545,5794,-1227.199999
20942.591,5795,-1227.150163
20942.625,5796,-1227.339770
20967.620,5797,-1227.245508
20967.665,5798,-1227.335732
20993.554,5799,-1227.368403
20993.603,5800,-1227.192787
21019.574,5801,-1227.224304
21019.631,5802,-1227.203028
21019.667,5803,-1227.198484
21039.301,5804,-1227.052005
21039.374,5805,-1226.912306
21062.675,5806,-1227.108981
21062.722,5807,-1227.126940
21062.756,5808,-1227.309624
21089.507,5809,-1227.433024
21089.556,5810,-1227.401507
21114.861,5811,-1227.566521
21114.908,5812,-1227.495553
21114.940,5813,-1227.565078
21147.896,5814,-1227.576257
21148.043,5815,-1227.512935
21173.569,5816,-1227.655086
21173.616,5817,-1227.597750
21173.651,5818,-1227.462377
21197.541,5819,-1226.371898
21197.589,5820,-1223.203884
21222.706,5821,-1222.494639
21222.753,5822,-1226.237391
21222.785,5823,-1228.071589
21260.654,5824,-1228.312114
21260.702,5825,-1228.297041
21290.462,5826,-1227.945376
21290.513,5827,-1227.533489
21290.548,5828,-1227.460358
21311.731,5829,-1227.454949
21311.780,5830,-1227.344891
21337.640,5831,-1227.398838
21337.686,5832,-1227.330539
21337.723,5833,-1227.208581
21362.690,5834,-1227.313662
21362.739,5835,-1227.120881
21362.772,5836,-1227.099605
21362.804,5837,-1227.017531
21380.708,5838,-1226.899107
21380.755,5839,-1226.934014
21380.787,5840,-1226.792512
21407.576,5841,-1226.676612
21407.629,5842,-1226.475393
21407.664,5843,-1226.230396
21407.697,5844,-1226.243666
21407.731,5845,-1225.967801
21432.693,5846,-1225.966430
21432.743,5847,-1225.851901
21457.569,5848,-1225.742060
21457.618,5849,-1225.894597
21457.653,5850,-1225.914142
21482.573,5851,-1226.190368
21482.620,5852,-1226.429235
21496.580,5853,-1226.675314
21496.629,5854,-1226.999212
21496.664,5855,-1227.022796
21519.993,5856,-1227.270101
21520.041,5857,-1227.360830
21547.618,5858,-1227.364292
21547.670,5859,-1227.524330
21547.704,5860,-1227.456608
21573.656,5861,-1227.540773
21573.706,5862,-1227.555558
21601.600,5863,-1227.578060
21601.646,5864,-1227.600490
21601.680,5865,-1227.446006
21609.646,5866,-1227.539115
21609.685,5867,-1227.495553
21634.897,5868,-1227.426028
21635.057,5869,-1227.518993
21658.697,5870,-1227.366095
21660.692,5871,-1227.447160
21660.733,5872,-1227.391987
21690.819,5873,-1227.302772
21690.867,5874,-1227.416580
21695.699,5875,-1227.328880
21695.743,5876,-1227.418816
21695.778,5877,-1227.423864
21698.374,5878,-1227.366960
21698.482,5879,-1227.522959
21722.866,5880,-1227.389534
21722.914,5881,-1227.377923
21722.946,5882,-1227.350012
21749.029,5883,-1227.368980
21749.083,5884,-1227.340203
21750.666,5885,-1227.067295
21750.779,5886,-1227.199999
21778.765,5887,-1227.200215
21780.673,5888,-1227.306306
21780.712,5889,-1227.551303
21787.363,5890,-1227.507093
21789.140,5891,-1227.671746
21789.181,5892,-1227.667419
21811.561,5893,-1227.632873
21811.610,5894,-1227.787429
21837.105,5895,-1227.671891
21837.155,5896,-1227.751729
21837.193,5897,-1227.791036
21837.230,5898,-1227.666121
21837.267,5899,-1227.611958
21862.618,5900,-1226.160221
21862.655,5901,-1223.042331
21891.537,5902,-1222.967685
21891.584,5903,-1226.667597
21891.618,5904,-1228.247061
21894.553,5905,-1228.422388
21894.587,5906,-1228.475830
21897.558,5907,-1227.985620
21897.591,5908,-1227.646287
21922.980,5909,-1227.641311
21923.026,5910,-1227.501034
21923.059,5911,-1227.558660
21949.180,5912,-1227.485096
21949.237,5913,-1227.387299
21975.703,5914,-1227.408430
21975.747,5915,-1227.234184
21975.779,5916,-1227.280126
21989.762,5917,-1227.216515
21989.808,5918,-1227.030297
22012.642,5919,-1227.037941
22038.572,5920,-1226.828284
22038.660,5921,-1226.810542
22038.698,5922,-1226.649639
22038.739,5923,-1226.476114
22065.503,5924,-1226.437096
22091.863,5925,-1226.081537
22091.918,5926,-1226.065453
22091.958,5927,-1225.934481
22091.998,5928,-1225.848439
22098.545,5929,-1225.978258
22098.592,5930,-1225.942053
22098.631,5931,-1226.011290
22124.685,5932,-1226.356104
22124.758,5933,-1226.529268
22148.566,5934,-1226.906464
22148.618,5935,-1227.093764
22150.460,5936,-1227.234906
22178.601,5937,-1227.470599
22178.694,5938,-1227.454228
22185.644,5939,-1227.596812
22185.694,5940,-1227.661505
22185.734,5941,-1227.617078
22212.525,5942,-1227.709177
22212.573,5943,-1227.613328
22212.608,5944,-1227.756201
22212.642,5945,-1227.725261
22238.877,5946,-1227.663669
22262.528,5947,-1227.709827
22262.578,5948,-1227.587220
22262.614,5949,-1227.626815
22262.648,5950,-1227.605106
22282.839,5951,-1227.534355
22289.398,5952,-1227.621982
22289.452,5953,-1227.507814
22289.491,5954,-1227.606765
22289.530,5955,-1227.458771
22313.580,5956,-1227.493245
22339.237,5957,-1227.682348
22339.285,5958,-1227.462377
22341.500,5959,-1227.604673
22341.538,5960,-1227.580801
22372.255,5961,-1227.617439
22372.339,5962,-1227.703263
22372.399,5963,-1227.629195
22375.644,5964,-1227.724179
22375.731,5965,-1227.708312
22402.560,5966,-1227.688839
22402.611,5967,-1227.689128
22402.646,5968,-1227.427254
22428.646,5969,-1227.702254
22428.696,5970,-1227.541278
22456.547,5971,-1227.333929
22456.620,5972,-1227.479470
22456.656,5973,-1227.497500
22473.731,5974,-1227.651697
22473.801,5975,-1227.754470
22473.835,5976,-1227.830847
22473.869,5977,-1228.029037
22479.548,5978,-1227.990019
22482.485,5979,-1228.056082
22482.527,5980,-1227.966652
22507.609,5981,-1228.037908
22507.658,5982,-1228.062429
22531.662,5983,-1227.998241
22531.722,5984,-1228.167871
22531.755,5985,-1227.722015
22556.561,5986,-1225.853488
22556.614,5987,-1222.461968
22585.574,5988,-1223.698782
22586.095,5989,-1227.451415
22589.154,5990,-1228.681593
22608.563,5991,-1228.915267
22608.613,5992,-1228.627286
22634.641,5993,-1228.088393
22634.787,5994,-1228.004371
22634.851,5995,-1227.948982
22658.752,5996,-1227.808561
22658.806,5997,-1227.866980
22688.691,5998,-1227.801782
22688.783,5999,-1227.721510
22688.824,6000,-1227.621694
22697.483,6001,-1227.538393
22697.531,6002,-1227.548490
22721.575,6003,-1227.421556
22721.624,6004,-1227.391770
22721.659,6005,-1227.303277
22747.608,6006,-1227.152471
22747.657,6007,-1227.157880
22778.645,6008,-1226.915695
22778.703,6009,-1226.810758
22780.845,6010,-1226.561867
22788.238,6011,-1226.426711
22788.364,6012,-1226.359493
22813.599,6013,-1226.133464
22813.658,6014,-1226.189358
22838.938,6015,-1226.202773
22838.997,6016,-1226.171256
22839.037,6017,-1226.345357
22867.825,6018,-1226.549967
22867.905,6019,-1226.911296
22875.616,6020,-1227.141003
22875.693,6021,-1227.385856
22875.751,6022,-1227.574599
22877.490,6023,-1227.598543
22877.528,6024,-1227.777477
22903.577,6025,-1227.809859
22903.630,6026,-1227.787213
22932.600,6027,-1227.919917
22966.558,6028,-1227.921431
22966.622,6029,-1227.940111
22966.659,6030,-1227.911623
22966.694,6031,-1227.846136
22966.728,6032,-1227.963623
22993.647,6033,-1227.837770
22993.712,6034,-1227.848949
22993.749,6035,-1227.959223
22993.784,6036,-1227.767740
23019.648,6037,-1227.883423
23043.727,6038,-1227.804594
23043.794,6039,-1227.812744
23046.178,6040,-1227.860993
23046.225,6041,-1227.665977
23072.556,6042,-1227.883568
23078.458,6043,-1227.864816
23078.494,6044,-1227.736800
23080.668,6045,-1227.837915
23080.720,6046,-1227.774808
23105.550,6047,-1227.902608
23105.600,6048,-1227.926985
23105.635,6049,-1227.886452
23130.569,6050,-1227.958141
23130.615,6051,-1227.943645
23157.352,6052,-1228.015983
23157.417,6053,-1227.956338
23157.454,6054,-1227.870081
23172.585,6055,-1227.769688
23172.637,6056,-1227.834525
23178.456,6057,-1227.725405
23178.493,6058,-1227.605250
23178.526,6059,-1227.574526
23203.594,6060,-1227.678021
23203.643,6061,-1227.743940
23206.557,6062,-1227.947684
23206.609,6063,-1227.994851
23230.616,6064,-1228.095028
23255.551,6065,-1228.180853
23255.602,6066,-1228.171333
23255.636,6067,-1228.287377
23255.671,6068,-1228.205230
23281.649,6069,-1228.190589
23281.697,6070,-1228.307931
23281.732,6071,-1228.201552
23290.177,6072,-1228.029181
23290.227,6073,-1226.934952
23290.432,6074,-1223.462007
23290.467,6075,-1222.480936
23290.500,6076,-1226.542682
23316.562,6077,-1229.136464
23316.613,6078,-1229.299604
23316.647,6079,-1228.748883
23316.681,6080,-1228.263937
23316.713,6081,-1228.051467
23342.180,6082,-1228.121425
23342.257,6083,-1227.970041
23373.563,6084,-1227.948477
23375.434,6085,-1227.949415
23375.470,6086,-1228.054856
23381.548,6087,-1227.952516
23381.592,6088,-1227.765793
23381.627,6089,-1227.740406
23381.660,6090,-1227.739469
23407.602,6091,-1227.553900
23432.619,6092,-1227.487187
23432.669,6093,-1227.396386
23432.703,6094,-1227.231877
23432.735,6095,-1227.167905
23460.875,6096,-1226.921609
23467.652,6097,-1226.863119
23467.703,6098,-1226.673583
23467.738,6099,-1226.497606
23467.772,6100,-1226.463637
23494.041,6101,-1226.299416
23499.032,6102,-1226.399665
23499.083,6103,-1226.399304
23520.584,6104,-1226.489384
23520.633,6105,-1226.731208
23551.581,6106,-1226.944616
23551.629,6107,-1227.294334
23551.664,6108,-1227.469229
23553.466,6109,-1227.654004
23553.499,6110,-1227.871018
23558.568,6111,-1227.683358
23558.602,6112,-1227.875201
23560.483,6113,-1228.100798
23587.831,6114,-1228.167366
23588.140,6115,-1228.199028
23610.661,6116,-1228.119550
23610.723,6117,-1228.177391
23610.758,6118,-1228.125896
23637.587,6119,-1228.108154
23637.690,6120,-1228.165563
23651.493,6121,-1228.055866
23651.534,6122,-1228.138157
23651.568,6123,-1228.155899
23657.461,6124,-1228.101086
23657.498,6125,-1228.088249
23657.531,6126,-1227.995861
23657.564,6127,-1228.089258
23684.803,6128,-1228.295671
23708.562,6129,-1227.953021
23708.612,6130,-1228.038196
23711.432,6131,-1227.993697
23711.468,6132,-1228.001126
23735.632,6133,-1228.101880
23735.682,6134,-1228.019517
23735.721,6135,-1228.102962
23738.883,6136,-1228.144576
23738.928,6137,-1228.147316
23743.466,6138,-1228.157558
23743.505,6139,-1228.146162
23743.541,6140,-1228.203932
23770.641,6141,-1228.169602
23796.610,6142,-1228.152509
23796.667,6143,-1228.174578
23796.700,6144,-1228.029037
23820.632,6145,-1228.037547
23853.669,6146,-1228.036610
23853.718,6147,-1227.989947
23856.902,6148,-1227.865754
23856.952,6149,-1227.861787
23860.670,6150,-1227.968310
23885.596,6151,-1228.023123
23885.645,6152,-1228.137003
23910.594,6153,-1228.231915
23910.643,6154,-1228.055145
23910.678,6155,-1228.277857
23910.711,6156,-1228.313052
23910.745,6157,-1228.450444
23938.644,6158,-1228.588773
23938.694,6159,-1228.453617
23938.733,6160,-1228.506266
23939.123,6161,-1228.652168
23939.187,6162,-1228.364042
23966.555,6163,-1227.394294
23966.604,6164,-1224.129925
23966.639,6165,-1222.967180
23966.673,6166,-1226.688801
23973.474,6167,-1228.908488
23973.510,6168,-1229.272486
23973.545,6169,-1229.002174
23998.539,6170,-1228.610481
23998.587,6171,-1228.341107
24023.567,6172,-1228.275404
24025.443,6173,-1228.232636
24025.479,6174,-1228.227011
24050.549,6175,-1228.206312
24050.596,6176,-1228.098778
24066.555,6177,-1228.060915
24066.607,6178,-1228.019445
24066.643,6179,-1227.918330
24072.464,6180,-1227.896694
24072.498,6181,-1227.821471
24099.009,6182,-1227.715091
24123.498,6183,-1227.703696
24123.547,6184,-1227.530172
24123.597,6185,-1227.484735
24123.631,6186,-1227.305152
24149.518,6187,-1227.209086
24165.583,6188,-1227.252648
24165.633,6189,-1226.828284
24165.666,6190,-1226.863119
24165.699,6191,-1226.719308
24172.482,6192,-1226.751258
24172.519,6193,-1226.804772
24172.552,6194,-1226.846026
24197.594,6195,-1227.111001
24197.643,6196,-1227.289285
24221.538,6197,-1227.675785
24221.585,6198,-1227.794930
24248.531,6199,-1227.938164
24248.587,6200,-1228.163111
24248.622,6201,-1228.210783
24267.583,6202,-1228.320625
24267.631,6203,-1228.386111
24271.463,6204,-1228.344497
24296.677,6205,-1228.495664
24296.757,6206,-1228.419648
24296.813,6207,-1228.409118
24296.852,6208,-1228.415753
24323.663,6209,-1228.437173
24348.593,6210,-1228.406017
24348.640,6211,-1228.341612
24348.674,6212,-1228.358705
24348.706,6213,-1228.377961
24374.646,6214,-1228.300070
24381.525,6215,-1228.355892
24381.568,6216,-1228.276270
24406.574,6217,-1228.249224
24406.625,6218,-1228.324736
24406.659,6219,-1228.326106
24406.693,6220,-1228.420513
24432.648,6221,-1228.303820
24457.626,6222,-1228.304397
24457.714,6223,-1228.383947
24457.771,6224,-1228.369379
24457.827,6225,-1228.466094
24457.872,6226,-1228.498188
24490.593,6227,-1228.411354
24490.672,6228,-1228.449939
24515.590,6229,-1228.404646
24515.640,6230,-1228.328342
24515.674,6231,-1228.288747
24541.537,6232,-1228.335554
24541.587,6233,-1228.306417
24541.622,6234,-1228.044399
24541.656,6235,-1228.165130
24574.701,6236,-1228.191166
24574.756,6237,-1228.361806
24574.790,6238,-1228.511531
24581.762,6239,-1228.445539
24581.812,6240,-1228.489173
24605.950,6241,-1228.585960
24631.643,6242,-1228.565838
24633.723,6243,-1228.630315
24633.764,6244,-1228.550188
24633.803,6245,-1228.547808
24659.467,6246,-1228.628368
24659.520,6247,-1228.616323
24659.555,6248,-1228.503597
24674.834,6249,-1227.002746
24674.894,6250,-1223.778404
24677.449,6251,-1224.147667
24677.486,6252,-1227.640662
24677.521,6253,-1228.944477
24702.520,6254,-1229.281285
24702.569,6255,-1229.218827
24728.644,6256,-1228.878341
24728.700,6257,-1228.547808
24728.734,6258,-1228.408613
24753.557,6259,-1228.308364
24753.608,6260,-1228.241363
24776.586,6261,-1228.291920
24776.636,6262,-1228.236026
24776.671,6263,-1228.195926
24802.547,6264,-1227.951218
24802.610,6265,-1227.901382
24802.645,6266,-1227.799329
24802.679,6267,-1227.792189
24828.620,6268,-1227.744661
24853.581,6269,-1227.554909
24853.632,6270,-1227.466344
24856.549,6271,-1227.343016
24856.632,6272,-1227.161702
24868.587,6273,-1227.104582
24893.545,6274,-1226.904949
24893.594,6275,-1226.852733
24893.630,6276,-1226.698753
24893.664,6277,-1226.662909
24920.541,6278,-1226.726160
24920.595,6279,-1226.738565
24920.631,6280,-1226.924855
24943.570,6281,-1227.142157
24943.620,6282,-1227.384342
24972.548,6283,-1227.610876
24972.609,6284,-1227.720212
24972.646,6285,-1227.898857
24999.627,6286,-1228.113924
24999.687,6287,-1228.215255
25023.795,6288,-1228.334616
25023.891,6289,-1228.340602
25023.959,6290,-1228.396641
25050.600,6291,-1228.456502
25050.651,6292,-1228.371182
25076.560,6293,-1228.413085
25076.612,6294,-1228.361662
25076.647,6295,-1228.372047
25092.510,6296,-1228.345146
25092.556,6297,-1228.264658
25118.682,6298,-1228.280741
25118.733,6299,-1228.215760
25118.769,6300,-1228.327116
25144.408,6301,-1228.243094
25144.463,6302,-1228.192032
25168.901,6303,-1228.260187
25169.252,6304,-1228.229391
25170.844,6305,-1228.178689
25170.886,6306,-1228.215399
25170.923,6307,-1228.186983
25197.607,6308,-1228.252398
25197.873,6309,-1228.256797
25222.031,6310,-1228.239632
25222.216,6311,-1228.274539
25222.290,6312,-1228.091855
25272.556,6313,-1228.228670
25272.612,6314,-1228.174723
25272.647,6315,-1227.976172
25272.681,6316,-1227.974585
25288.493,6317,-1227.988865
25296.454,6318,-1228.106568
25296.504,6319,-1228.198595
25301.483,6320,-1228.346877
25301.520,6321,-1228.400752
25326.667,6322,-1228.506482
25352.514,6323,-1228.545572
25352.556,6324,-1228.531003
25352.590,6325,-1228.542327
25352.623,6326,-1228.627214
25377.565,6327,-1228.551919
25377.615,6328,-1228.609760
25377.651,6329,-1228.606010
25405.522,6330,-1228.232564
25405.567,6331,-1226.255855
25405.602,6332,-1222.397492
25412.495,6333,-1224.064872
25412.530,6334,-1227.922225
25438.092,6335,-1229.097952
25438.143,6336,-1229.246666
25462.567,6337,-1228.717654
25462.611,6338,-1228.315576
25462.645,6339,-1228.116953
25490.469,6340,-1228.124237
25490.523,6341,-1228.147533
25512.511,6342,-1228.041658
25512.601,6343,-1228.111544
25512.635,6344,-1228.044687
25521.638,6345,-1227.977686
25521.677,6346,-1227.981437
25547.662,6347,-1227.891140
25547.714,6348,-1227.779712
25547.749,6349,-1227.693671
25572.773,6350,-1227.548274
25572.820,6351,-1227.490072
25597.764,6352,-1227.373956
25597.826,6353,-1227.195816
25597.861,6354,-1227.009742
25626.760,6355,-1226.782342
25626.807,6356,-1226.668246
25632.831,6357,-1226.475681
25632.878,6358,-1226.468108
25632.910,6359,-1226.365696
25658.586,6360,-1226.394256
25658.634,6361,-1226.511093
25660.463,6362,-1226.669833
25660.498,6363,-1226.951396
25687.066,6364,-1227.183699
25687.116,6365,-1227.362994
25687.154,6366,-1227.689488
25710.653,6367,-1227.816278
25710.700,6368,-1227.934558
25727.871,6369,-1228.029397
25727.918,6370,-1228.036826
25727.950,6371,-1228.083705
25735.858,6372,-1228.080099
25735.931,6373,-1228.086878
25735.970,6374,-1228.077719
25736.006,6375,-1228.048365
25762.744,6376,-1228.077863
25790.011,6377,-1227.998962
25790.063,6378,-1228.012810
25790.098,6379,-1227.821615
25790.132,6380,-1227.628113
25812.610,6381,-1227.484374
25827.631,6382,-1227.360902
25827.680,6383,-1227.292819
25827.715,6384,-1227.158457
25827.748,6385,-1227.127228
25837.100,6386,-1227.181391
25860.594,6387,-1227.049842
25860.640,6388,-1227.113669
25889.431,6389,-1227.045082
25889.481,6390,-1227.046957
25889.516,6391,-1227.088066
25889.549,6392,-1227.111938
25889.583,6393,-1227.221275
25911.650,6394,-1227.270317
25911.700,6395,-1227.268659
25911.735,6396,-1227.348641
25911.768,6397,-1227.485384
25942.561,6398,-1227.583830
25949.018,6399,-1227.444563
25949.111,6400,-1227.394727
25972.719,6401,-1227.539115
25972.766,6402,-1227.577411
25998.921,6403,-1227.772284
25999.032,6404,-1227.851401
25999.099,6405,-1227.857243
26030.573,6406,-1228.105053
26030.622,6407,-1228.080820
26037.856,6408,-1228.080748
26061.575,6409,-1228.086878
26061.626,6410,-1228.067550
26089.216,6411,-1228.068415
26089.315,6412,-1228.119766
26089.355,6413,-1227.969248
26112.568,6414,-1227.082657
26112.616,6415,-1223.807181
26131.635,6416,-1222.285054
26131.685,6417,-1226.144859
26131.720,6418,-1228.700850
26158.547,6419,-1229.022152
26158.596,6420,-1228.786675
26158.631,6421,-1228.287737
26158.664,6422,-1227.980715
26183.958,6423,-1227.949847
26184.249,6424,-1227.999467
26184.290,6425,-1227.679968
26240.473,6426,-1227.382971
26240.565,6427,-1227.117203
26240.607,6428,-1226.916344
26240.647,6429,-1226.831962
26266.346,6430,-1226.740368
26290.534,6431,-1226.711303
26290.582,6432,-1226.719597
26290.617,6433,-1226.706398
26290.650,6434,-1226.770010
26315.682,6435,-1226.722193
26315.723,6436,-1226.793016
26315.755,6437,-1226.749599
26322.896,6438,-1226.641489
26322.943,6439,-1226.552419
26324.631,6440,-1226.327976
26348.835,6441,-1226.342977
26349.017,6442,-1226.235733
26350.642,6443,-1226.217125
26350.690,6444,-1226.262778
26375.773,6445,-1226.311100
26402.381,6446,-1226.487437
26402.436,6447,-1226.697599
26402.484,6448,-1226.931851
26402.519,6449,-1227.199422
26430.958,6450,-1227.400857
26431.005,6451,-1227.612174
26431.038,6452,-1227.724323
26439.188,6453,-1227.675785
26439.236,6454,-1227.740911
26439.271,6455,-1227.600490
26439.305,6456,-1227.559309
26461.732,6457,-1227.381240
26461.782,6458,-1227.204831
26461.816,6459,-1227.189036
26489.110,6460,-1227.015079
26489.155,6461,-1227.098235
26513.586,6462,-1227.079772
26515.581,6463,-1227.059506
26515.622,6464,-1227.048327
26539.778,6465,-1226.959834
26539.827,6466,-1227.025176
26541.452,6467,-1227.187594
26541.487,6468,-1227.242767
26541.520,6469,-1227.414777
26567.699,6470,-1227.485384
26567.748,6471,-1227.641744
26567.782,6472,-1227.683719
26593.651,6473,-1227.714370
26593.700,6474,-1227.720861
26624.761,6475,-1227.691868
26624.808,6476,-1227.567675
26624.840,6477,-1227.665472
26624.870,6478,-1227.526565
26624.901,6479,-1227.462449
26629.877,6480,-1227.417950
26629.924,6481,-1227.595081
26653.559,6482,-1227.681194
26680.673,6483,-1227.713937
26680.723,6484,-1227.926985
26680.756,6485,-1228.068920
26680.787,6486,-1228.096110
26713.705,6487,-1228.131450
26713.766,6488,-1228.122434
26713.803,6489,-1228.173785
26719.559,6490,-1228.112698
26719.611,6491,-1228.226506
26719.647,6492,-1228.240714
26719.681,6493,-1228.021608
26746.558,6494,-1227.254595
26746.640,6495,-1224.026286
26746.695,6496,-1222.401170
26772.911,6497,-1226.383221
26772.979,6498,-1229.019844
26773.014,6499,-1229.340713
26798.555,6500,-1228.882452
26798.607,6501,-1228.317668
26800.476,6502,-1228.067333
26800.514,6503,-1227.988649
26806.529,6504,-1228.047789
26806.576,6505,-1227.978191
26806.610,6506,-1227.970979
26808.543,6507,-1227.898713
26808.586,6508,-1227.889193
26835.203,6509,-1227.844333
26835.315,6510,-1227.743579
26835.355,6511,-1227.744806
26858.582,6512,-1227.625949
26858.659,6513,-1227.586138
26885.139,6514,-1227.566737
26885.226,6515,-1227.291016
26885.267,6516,-1227.337607
26906.562,6517,-1227.088715
26906.610,6518,-1226.934663
26932.610,6519,-1226.784218
26932.671,6520,-1226.605644
26932.711,6521,-1226.652596
26957.752,6522,-1226.662332
26957.820,6523,-1226.585378
26992.576,6524,-1226.698032
26992.624,6525,-1226.820278
26992.658,6526,-1226.877471
26998.542,6527,-1227.316115
26998.581,6528,-1227.343665
27001.551,6529,-1227.658115
27001.614,6530,-1227.906574
27025.605,6531,-1228.028027
27051.128,6532,-1228.203788
27051.279,6533,-1228.279948
27051.349,6534,-1228.367576
27051.452,6535,-1228.351998
27085.808,6536,-1228.401761
27086.183,6537,-1228.361229
27086.306,6538,-1228.273673
27091.218,6539,-1228.400608
27113.541,6540,-1228.330145
27113.607,6541,-1228.214462
27113.642,6542,-1228.234728
27139.355,6543,-1228.201985
27140.456,6544,-1228.335193
27140.491,6545,-1228.263432
27165.644,6546,-1228.244897
27165.697,6547,-1228.389429
27180.622,6548,-1228.294300
27180.673,6549,-1228.346661
27180.707,6550,-1228.369739
27189.132,6551,-1228.390583
27189.187,6552,-1228.384885
27189.222,6553,-1228.359859
27212.579,6554,-1228.384308
27212.629,6555,-1228.391809
27239.387,6556,-1228.247493
27239.439,6557,-1228.379043
27239.474,6558,-1228.194340
27266.578,6559,-1228.271293
27266.628,6560,-1228.045769
27277.496,6561,-1228.193114
27277.533,6562,-1228.310239
27301.529,6563,-1228.299998
27301.581,6564,-1228.498981
27301.616,6565,-1228.576224
27326.604,6566,-1228.525234
27326.649,6567,-1228.604495
27356.570,6568,-1228.490038
27356.620,6569,-1228.582570
27356.655,6570,-1228.571031
27358.486,6571,-1228.583869
27358.530,6572,-1228.682964
27365.494,6573,-1228.421883
27365.536,6574,-1227.267432
27392.056,6575,-1224.052827
27415.652,6576,-1223.528070
27415.715,6577,-1227.593783
27415.750,6578,-1229.259937
27415.789,6579,-1229.561261
27446.314,6580,-1229.296214
27470.576,6581,-1228.815235
27470.625,6582,-1228.543408
27470.659,6583,-1228.366133
27470.693,6584,-1228.434144
27499.645,6585,-1228.326034
27499.695,6586,-1228.363465
27499.730,6587,-1228.305407
27522.638,6588,-1228.176309
27522.699,6589,-1228.188426
27522.735,6590,-1228.100942
27551.547,6591,-1228.235016
27551.597,6592,-1228.083633
27551.633,6593,-1227.871235
27551.666,6594,-1227.931456
27557.927,6595,-1227.751946
27557.978,6596,-1227.554981
27558.012,6597,-1227.447520
27558.046,6598,-1227.369989
27558.079,6599,-1227.388453
27583.685,6600,-1227.248825
27583.735,6601,-1227.010535
27583.770,6602,-1226.979739
27610.638,6603,-1226.982985
27610.695,6604,-1227.159034
27639.594,6605,-1227.151966
27639.642,6606,-1227.459925
27639.677,6607,-1227.651120
27646.551,6608,-1227.895396
27646.599,6609,-1228.131017
27670.577,6610,-1228.288242
27670.626,6611,-1228.305768
27670.661,6612,-1228.473306
27696.599,6613,-1228.472080
27696.658,6614,-1228.587691
27721.581,6615,-1228.430177
27721.632,6616,-1228.515858
27721.668,6617,-1228.535331
27734.631,6618,-1228.388419
27734.770,6619,-1228.457944
27758.567,6620,-1228.417917
27758.617,6621,-1228.435803
27760.456,6622,-1228.411714
27760.490,6623,-1228.370172
27760.524,6624,-1228.349978
27789.774,6625,-1228.391520
27789.890,6626,-1228.277352
27816.597,6627,-1228.338222
27816.647,6628,-1228.245834
27816.680,6629,-1228.222395
27823.746,6630,-1228.229535
27823.838,6631,-1228.180853
27848.598,6632,-1228.137436
27848.651,6633,-1227.984177
27848.686,6634,-1227.926841
27875.609,6635,-1227.937226
27875.661,6636,-1227.996366
27907.537,6637,-1228.263793
27907.588,6638,-1228.316225
27907.624,6639,-1228.524224
27912.499,6640,-1228.465373
27912.544,6641,-1228.530354
27938.482,6642,-1228.545211
27938.552,6643,-1228.500207
27938.591,6644,-1228.512468
27938.630,6645,-1228.568723
27938.666,6646,-1228.533167
27963.903,6647,-1228.660317
27963.969,6648,-1228.250234
27997.846,6649,-1226.106130
27998.007,6650,-1223.010670
27998.091,6651,-1225.135301
28000.633,6652,-1228.548096
28000.689,6653,-1229.017320
28006.557,6654,-1229.402665
28006.605,6655,-1229.262100
28006.639,6656,-1228.773044
28006.673,6657,-1228.580262
28006.706,6658,-1228.435587
28021.558,6659,-1228.417268
28021.608,6660,-1228.450516
28026.500,6661,-1228.437750
28026.542,6662,-1228.351421
28026.576,6663,-1228.202345
28044.878,6664,-1228.173136
28044.928,6665,-1228.157341
28045.916,6666,-1227.970186
28050.973,6667,-1227.948838
28051.111,6668,-1227.838780
28051.189,6669,-1227.733050
28051.269,6670,-1227.602149
28076.586,6671,-1227.426677
28076.638,6672,-1227.352320
28076.674,6673,-1227.181824
28097.579,6674,-1227.081719
28097.631,6675,-1226.960194
28097.666,6676,-1226.949448
28112.578,6677,-1227.010679
28112.661,6678,-1226.969570
28112.721,6679,-1227.144465
28112.786,6680,-1227.353906
28120.595,6681,-1227.516324
28120.642,6682,-1227.808417
28120.676,6683,-1227.972638
28136.533,6684,-1228.159000
28136.593,6685,-1228.348968
28141.518,6686,-1228.420080
28141.588,6687,-1228.535475
28141.641,6688,-1228.543985
28160.872,6689,-1228.586753
28160.924,6690,-1228.622598
28166.352,6691,-1228.593533
28166.401,6692,-1228.658875
28166.436,6693,-1228.620578
28172.553,6694,-1228.630026
28172.600,6695,-1228.634498
28172.635,6696,-1228.529705
28172.668,6697,-1228.580984
28178.656,6698,-1228.572906
28181.577,6699,-1228.548313
28181.622,6700,-1228.552279
28188.463,6701,-1228.508429
28188.524,6702,-1228.612717
28188.565,6703,-1228.561439
28188.603,6704,-1228.537639
28189.504,6705,-1228.497323
28191.468,6706,-1228.550909
28191.506,6707,-1228.527037
28191.540,6708,-1228.553938
28191.572,6709,-1228.587403
28191.606,6710,-1228.334977
28199.500,6711,-1228.390150
28199.543,6712,-1228.600745
28199.576,6713,-1228.668900
28199.609,6714,-1228.770952
28201.560,6715,-1228.877764
28208.005,6716,-1228.817110
28208.137,6717,-1228.887068
28208.199,6718,-1228.860239
28208.265,6719,-1228.885625
28213.744,6720,-1228.917720
28217.547,6721,-1228.842208
28217.599,6722,-1228.803263
28221.520,6723,-1228.352863
28221.562,6724,-1225.720928
28221.594,6725,-1222.724347
28221.626,6726,-1225.787497
28221.657,6727,-1229.123050
28232.483,6728,-1229.918407
28232.528,6729,-1229.702475
28241.390,6730,-1229.116559
28263.548,6731,-1228.720251
28263.598,6732,-1228.678132
28272.544,6733,-1228.686353
28272.593,6734,-1228.607092
28298.871,6735,-1228.584085
28298.954,6736,-1228.479364
28299.001,6737,-1228.476696
28311.560,6738,-1228.428591
28311.609,6739,-1228.290838
28341.119,6740,-1228.265596
28341.172,6741,-1228.172920
28341.212,6742,-1228.091422
28354.549,6743,-1228.003434
28354.600,6744,-1227.846064
28368.694,6745,-1227.811879
28368.801,6746,-1227.677083
28376.554,6747,-1227.515315
28390.466,6748,-1227.337751
28390.511,6749,-1227.160188
28413.549,6750,-1227.095422
28413.599,6751,-1226.986519
28415.451,6752,-1227.048543
28443.358,6753,-1227.065997
28443.452,6754,-1227.121603
28446.540,6755,-1227.397035
28446.587,6756,-1227.680329
28459.559,6757,-1227.893665
28472.571,6758,-1228.125175
28472.619,6759,-1228.269418
28487.094,6760,-1228.466455
28492.316,6761,-1228.543192
28510.605,6762,-1228.609039
28510.649,6763,-1228.691330
28510.681,6764,-1228.601466
28526.611,6765,-1228.717294
28526.658,6766,-1228.664068
28551.532,6767,-1228.661399
28574.572,6768,-1228.575791
28574.630,6769,-1228.497323
28574.665,6770,-1228.531292
28574.699,6771,-1228.448208
28580.464,6772,-1228.461118
28580.502,6773,-1228.520185
28593.568,6774,-1228.471864
28607.533,6775,-1228.504679
28607.583,6776,-1228.425634
28622.800,6777,-1228.450227
28622.864,6778,-1228.463209
28630.590,6779,-1228.443376
28653.636,6780,-1228.467753
28653.691,6781,-1228.370677
28661.602,6782,-1228.482898
28661.658,6783,-1228.322067
28676.581,6784,-1228.269130
28689.101,6785,-1228.248864
28689.150,6786,-1228.318028
28703.649,6787,-1228.412508
28703.705,6788,-1228.566559
28727.606,6789,-1228.600601
28727.654,6790,-1228.776722
28727.689,6791,-1228.872067
28741.533,6792,-1228.808023
28741.582,6793,-1228.841631
28766.992,6794,-1228.779679
28767.113,6795,-1228.832183
28767.178,6796,-1228.829587
28780.660,6797,-1228.827207
28780.711,6798,-1228.614015
28797.595,6799,-1227.085181
28797.641,6800,-1223.840790
28807.803,6801,-1223.728064
28821.502,6802,-1227.941553
28821.543,6803,-1229.507675
28844.520,6804,-1229.580013
28844.571,6805,-1229.470460
28844.606,6806,-1228.919451
28869.669,6807,-1228.845742
28869.719,6808,-1228.681738
28875.664,6809,-1228.516579
28875.731,6810,-1228.638104
28891.797,6811,-1228.495520
28902.553,6812,-1228.503020
28902.605,6813,-1228.402988
28916.567,6814,-1228.258167
28916.616,6815,-1228.277640
28926.730,6816,-1228.165996
28948.549,6817,-1228.157269
28948.598,6818,-1228.014757
28955.484,6819,-1227.971340
28955.522,6820,-1227.874985
28981.590,6821,-1227.747113
28981.639,6822,-1227.615564
28981.674,6823,-1227.514016
28998.972,6824,-1227.176920
29021.537,6825,-1227.033975
29021.592,6826,-1227.026763
29021.628,6827,-1226.989548
29021.662,6828,-1227.111361
29036.077,6829,-1227.060371
29038.512,6830,-1227.345901
29058.574,6831,-1227.464469
29058.627,6832,-1227.647441
29060.460,6833,-1227.908017
29083.576,6834,-1228.104043
29083.629,6835,-1228.296897
29095.399,6836,-1228.355748
29095.463,6837,-1228.459747
29104.823,6838,-1228.575430
29118.651,6839,-1228.478859
29118.718,6840,-1228.673227
29132.546,6841,-1228.621155
29132.597,6842,-1228.601899
29140.531,6843,-1228.785809
29163.580,6844,-1228.556607
29163.630,6845,-1228.624762
29171.954,6846,-1228.513911
29172.003,6847,-1228.389573
29185.112,6848,-1228.451886
29198.559,6849,-1228.472008
29198.607,6850,-1228.508429
29212.649,6851,-1228.366638
29212.700,6852,-1228.208980
29225.649,6853,-1228.595336
29225.711,6854,-1228.405728
29238.664,6855,-1228.378610
29253.495,6856,-1228.465661
29253.537,6857,-1228.269707
29267.586,6858,-1228.228020
29267.637,6859,-1228.166933
29275.485,6860,-1228.283049
29299.597,6861,-1228.357118
29299.650,6862,-1228.371975
29305.505,6863,-1228.575575
29305.540,6864,-1228.649716
29318.652,6865,-1228.681233
29333.013,6866,-1228.625771
29333.092,6867,-1228.595192
29346.535,6868,-1228.679141
29346.585,6869,-1228.452751
29355.557,6870,-1228.829875
29378.560,6871,-1228.869110
29378.612,6872,-1228.290983
29387.672,6873,-1226.894347
29388.568,6874,-1223.770038
29399.116,6875,-1224.073093
29412.599,6876,-1227.956987
29412.650,6877,-1229.304292
29426.604,6878,-1229.549144
29426.654,6879,-1229.297440
29451.617,6880,-1229.095716
29451.666,6881,-1228.614088
29474.977,6882,-1228.462632
29475.064,6883,-1228.486216
29475.125,6884,-1228.503597
29480.560,6885,-1228.427365
29480.608,6886,-1228.340963
29494.524,6887,-1228.224486
29507.718,6888,-1228.258961
29507.805,6889,-1228.083633
29521.745,6890,-1227.940111
29521.799,6891,-1228.015190
29531.602,6892,-1227.870658
29553.571,6893,-1227.869792
29553.622,6894,-1227.637705
29560.465,6895,-1227.513367
29560.502,6896,-1227.336092
29573.590,6897,-1227.208293
29588.909,6898,-1227.073786
29588.988,6899,-1226.882880
29601.492,6900,-1226.835929
29601.536,6901,-1226.856556
29611.480,6902,-1226.842059
29633.610,6903,-1226.993010
29633.677,6904,-1227.191200
29643.205,6905,-1227.452352
29643.359,6906,-1227.754975
29667.598,6907,-1227.874480
29667.678,6908,-1228.107289
29667.828,6909,-1228.188065
29682.913,6910,-1228.352719
29682.967,6911,-1228.393467
29705.565,6912,-1228.350339
29705.618,6913,-1228.533383
29705.653,6914,-1228.485711
29721.063,6915,-1228.531364
29721.107,6916,-1228.577450
29747.552,6917,-1228.481600
29747.605,6918,-1228.484485
29747.640,6919,-1228.509006
29769.485,6920,-1228.362599
29769.536,6921,-1228.470277
29775.551,6922,-1228.363681
29775.602,6923,-1228.398444
29789.513,6924,-1228.317379
29802.559,6925,-1228.238406
29802.624,6926,-1228.319543
29816.588,6927,-1228.256941
29816.640,6928,-1228.257662
29826.566,6929,-1228.178257
29848.588,6930,-1228.183882
29848.672,6931,-1228.245618
29855.550,6932,-1228.054856
29855.598,6933,-1228.050818
29868.629,6934,-1228.089691
29882.598,6935,-1228.116376
29882.677,6936,-1228.315720
29896.596,6937,-1228.373562
29911.581,6938,-1228.522205
29911.682,6939,-1228.593172
29911.718,6940,-1228.509295
29923.587,6941,-1228.625699
29939.008,6942,-1228.561439
29939.057,6943,-1228.641350
29956.564,6944,-1228.597716
29956.613,6945,-1228.607597
29961.498,6946,-1228.555308
29983.864,6947,-1227.934702
29983.950,6948,-1225.546899
29991.482,6949,-1222.746705
29991.525,6950,-1225.660635
30003.566,6951,-1228.935029
30017.529,6952,-1229.372879
30017.573,6953,-1229.503419
30031.570,6954,-1228.950823
30031.603,6955,-1228.601538
30041.614,6956,-1228.463425
30064.771,6957,-1228.377024
30064.818,6958,-1228.435947
30071.715,6959,-1228.310095
30071.754,6960,-1228.234944
30080.750,6961,-1228.302883
30104.633,6962,-1228.074834
30104.678,6963,-1228.150057
30110.633,6964,-1228.015117
30110.671,6965,-1227.942635
30137.893,6966,-1227.926552
30138.031,6967,-1227.720645
30138.068,6968,-1227.697494
30150.911,6969,-1227.521301
30151.107,6970,-1227.312364
30173.575,6971,-1227.254739
30173.625,6972,-1226.994668
30175.480,6973,-1226.925287
30199.522,6974,-1226.817394
30199.569,6975,-1226.688512
30205.476,6976,-1226.786021
30205.514,6977,-1226.750032
30219.568,6978,-1227.002458
30232.672,6979,-1227.210312
30232.718,6980,-1227.430860
30246.526,6981,-1227.801710
30246.573,6982,-1227.907151
30255.490,6983,-1228.140321
30278.584,6984,-1228.218212
30278.632,6985,-1228.260980
30285.470,6986,-1228.392169
30285.511,6987,-1228.362239
30298.562,6988,-1228.447631
30312.558,6989,-1228.405151
30312.598,6990,-1228.385606
30326.661,6991,-1228.515858
30326.710,6992,-1228.391953
30350.595,6993,-1228.447198
30350.638,6994,-1228.425273
30366.594,6995,-1228.381928
30366.769,6996,-1228.422244
30366.860,6997,-1228.281679
30390.535,6998,-1228.342550
30390.584,6999,-1228.285934
30390.618,7000,-1228.287377
30405.486,7001,-1228.311609
30405.523,7002,-1228.217491
30428.779,7003,-1228.338871
30428.827,7004,-1228.305768
30431.755,7005,-1228.269851
30445.571,7006,-1228.381712
30445.619,7007,-1228.244031
30468.579,7008,-1228.284347
30468.626,7009,-1228.307931
30470.538,7010,-1228.237324
30494.552,7011,-1228.155105
30494.599,7012,-1227.956338
30500.919,7013,-1228.143278
30501.029,7014,-1228.255932
30511.657,7015,-1228.336852
30533.991,7016,-1228.438183
30534.029,7017,-1228.477417
30540.638,7018,-1228.537278
30540.682,7019,-1228.641494
30554.583,7020,-1228.601322
30567.915,7021,-1228.658947
30567.963,7022,-1228.611203
30581.997,7023,-1228.660822
30582.045,7024,-1228.757105
30595.646,7025,-1228.673804
30595.697,7026,-1228.454482
30608.668,7027,-1226.826264
30622.641,7028,-1223.491649
30622.681,7029,-1224.362878
30639.608,7030,-1228.017858
30639.675,7031,-1229.332203
30648.150,7032,-1229.585638
30668.862,7033,-1229.346122
30668.910,7034,-1229.047899
30675.747,7035,-1228.581633
30675.785,7036,-1228.587619
30689.832,7037,-1228.481456
30702.601,7038,-1228.285718
30702.681,7039,-1228.506194
30716.664,7040,-1228.409262
30716.704,7041,-1228.463930
30725.819,7042,-1228.314783
30750.033,7043,-1228.336419
30750.085,7044,-1228.223116
30755.598,7045,-1228.040648
30755.650,7046,-1228.026729
30769.179,7047,-1227.936000
30782.547,7048,-1227.740046
30782.594,7049,-1227.737305
30796.483,7050,-1227.522887
30796.531,7051,-1227.506371
30845.730,7052,-1227.222573
30845.791,7053,-1227.070324
30845.827,7054,-1227.119944
30845.861,7055,-1227.006208
30845.895,7056,-1227.136460
30851.550,7057,-1227.099173
30851.586,7058,-1227.251566
30860.547,7059,-1227.587292
30883.722,7060,-1227.875634
30883.770,7061,-1228.133108
30891.044,7062,-1228.340097
30891.093,7063,-1228.457656
30903.612,7064,-1228.675607
30917.651,7065,-1228.618126
30917.702,7066,-1228.791579
30930.805,7067,-1228.708062
30930.854,7068,-1228.718375
30943.528,7069,-1228.779318
30957.681,7070,-1228.719025
30957.719,7071,-1228.772395
30971.964,7072,-1228.724506
30972.010,7073,-1228.863845
30980.829,7074,-1228.827135
31003.573,7075,-1228.679574
31003.625,7076,-1228.691330
31012.662,7077,-1228.617045
31012.695,7078,-1228.590071
31036.843,7079,-1228.581705
31036.892,7080,-1228.467104
31037.194,7081,-1228.418638
31051.573,7082,-1228.393251
31051.623,7083,-1228.599880
31065.489,7084,-1228.610842
31065.525,7085,-1228.509872
31078.564,7086,-1228.618631
31092.515,7087,-1228.452463
31092.560,7088,-1228.419215
31106.568,7089,-1228.307138
31106.615,7090,-1228.156909
31115.490,7091,-1228.284924
31139.484,7092,-1228.397074
31139.531,7093,-1228.559275
31145.516,7094,-1228.696523
31145.556,7095,-1228.644018
31158.653,7096,-1228.849565
31173.599,7097,-1228.821870
31173.632,7098,-1228.816533
31189.312,7099,-1228.823240
31189.355,7100,-1228.787756
31195.536,7101,-1228.914835
31218.578,7102,-1228.789776
31218.625,7103,-1228.543697
31238.360,7104,-1227.586571
31239.274,7105,-1224.471638
31239.310,7106,-1223.664957
31251.637,7107,-1227.519137
31251.719,7108,-1229.486399
31298.147,7109,-1229.628911
31298.211,7110,-1229.671751
31298.247,7111,-1229.209163
31298.282,7112,-1228.819706
31298.316,7113,-1228.631397
31306.702,7114,-1228.661760
31306.750,7115,-1228.575863
31330.914,7116,-1228.516146
31330.962,7117,-1228.583292
31330.993,7118,-1228.415032
31346.937,7119,-1228.429673
31347.045,7120,-1228.327693
31368.852,7121,-1228.242805
31368.900,7122,-1228.223044
31370.694,7123,-1228.069858
31387.786,7124,-1228.048221
31388.052,7125,-1227.922297
31401.546,7126,-1227.715452
31401.597,7127,-1227.553034
31413.485,7128,-1227.358378
31427.899,7129,-1227.228775
31427.945,7130,-1227.041836
31443.100,7131,-1226.886125
31443.381,7132,-1226.923701
31450.672,7133,-1226.860017
31473.587,7134,-1227.014502
31473.637,7135,-1227.100615
31480.474,7136,-1227.244570
31480.512,7137,-1227.617006
31507.041,7138,-1227.825438
31507.130,7139,-1228.170467
31507.200,7140,-1228.334183
31520.645,7141,-1228.440419
31520.754,7142,-1228.484701
31546.547,7143,-1228.504318
31546.599,7144,-1228.673660
31546.634,7145,-1228.654980
31560.511,7146,-1228.678781
31560.555,7147,-1228.761071
31584.682,7148,-1228.761071
31584.735,7149,-1228.695369
31585.037,7150,-1228.720106
31609.561,7151,-1228.643802
31609.611,7152,-1228.647119
31616.499,7153,-1228.593749
31616.544,7154,-1228.708062
31629.187,7155,-1228.548024
31642.527,7156,-1228.582354
31642.574,7157,-1228.624978
31656.505,7158,-1228.468979
31656.548,7159,-1228.596923
31665.566,7160,-1228.500857
31690.608,7161,-1228.488957
31690.661,7162,-1228.497178
31695.489,7163,-1228.442871
31695.529,7164,-1228.659957
31708.565,7165,-1228.549034
31740.465,7166,-1228.631036
31743.033,7167,-1228.634786
31743.107,7168,-1228.579613
31743.153,7169,-1228.668972
31751.581,7170,-1228.631180
31751.631,7171,-1228.523214
31760.545,7172,-1228.537639
31784.315,7173,-1228.635075
31784.490,7174,-1228.717871
31792.177,7175,-1228.735180
31793.040,7176,-1228.759340
31801.812,7177,-1228.729194
31823.673,7178,-1228.636301
31823.731,7179,-1228.676545
31832.570,7180,-1228.602764
31832.619,7181,-1228.535547
31841.491,7182,-1228.592090
31855.588,7183,-1228.499703
31855.634,7184,-1228.658587
31878.703,7185,-1228.438327
31878.754,7186,-1228.425201
31878.789,7187,-1228.425634
31904.619,7188,-1228.328342
31904.710,7189,-1228.537494
31912.576,7190,-1228.451886
31912.621,7191,-1228.588124
31938.724,7192,-1228.794752
31938.776,7193,-1228.713832
31938.815,7194,-1228.928394
31951.613,7195,-1228.835717
31951.656,7196,-1228.787901
31976.573,7197,-1228.810835
31976.624,7198,-1228.687507
31976.659,7199,-1228.642648
31992.352,7200,-1227.914363
31992.435,7201,-1225.274496
32015.235,7202,-1222.365902
32015.337,7203,-1225.118857
32015.417,7204,-1228.893631
32039.541,7205,-1229.768322
32039.967,7206,-1229.576262
32046.885,7207,-1229.009314
32046.937,7208,-1228.507924
32058.687,7209,-1228.526532
32072.672,7210,-1228.422677
32072.735,7211,-1228.370172
32088.154,7212,-1228.360508
32088.438,7213,-1228.303748
32095.954,7214,-1228.265452
32118.555,7215,-1228.252830
32118.607,7216,-1228.150562
32126.838,7217,-1228.194051
32126.914,7218,-1227.981509
32138.702,7219,-1227.961026
32152.574,7220,-1227.928571
32152.623,7221,-1227.723025
32166.652,7222,-1227.653283
32191.007,7223,-1227.402084
32191.081,7224,-1227.334650
32191.122,7225,-1227.161919
32191.161,7226,-1226.897088
32215.576,7227,-1226.813787
32215.626,7228,-1226.649494
32240.788,7229,-1226.527969
32240.845,7230,-1226.488303
32240.882,7231,-1226.466666
32245.474,7232,-1226.653966
32245.513,7233,-1226.777294
32263.631,7234,-1227.013709
32263.694,7235,-1227.291305
32271.558,7236,-1227.457617
32287.921,7237,-1227.755480
32287.973,7238,-1227.841376
32308.621,7239,-1227.979489
32308.673,7240,-1228.043822
32308.709,7241,-1228.034302
32333.734,7242,-1228.095677
32333.799,7243,-1228.045120
32341.675,7244,-1228.092648
32342.586,7245,-1228.101663
32353.559,7246,-1228.026008
32367.678,7247,-1228.084715
32367.731,7248,-1227.989875
32382.578,7249,-1227.946602
32382.629,7250,-1227.963334
32405.554,7251,-1227.872172
32405.604,7252,-1227.899506
32405.639,7253,-1227.827601
32420.631,7254,-1227.903401
32420.680,7255,-1227.907800
32445.569,7256,-1227.723962
32445.619,7257,-1227.782237
32445.654,7258,-1227.667708
32460.956,7259,-1227.659558
32461.096,7260,-1227.635758
32485.514,7261,-1227.564141
32485.748,7262,-1227.626021
32485.790,7263,-1227.652995
32515.917,7264,-1227.743796
32516.044,7265,-1227.745743
32516.084,7266,-1227.622632
32516.122,7267,-1227.724756
32525.698,7268,-1227.630853
32548.653,7269,-1227.619747
32548.714,7270,-1227.615564
32558.598,7271,-1227.546183
32558.642,7272,-1227.610443
32566.919,7273,-1227.628401
32581.546,7274,-1227.696268
32581.596,7275,-1227.663092
32605.004,7276,-1227.641527
32605.092,7277,-1227.705788
32605.153,7278,-1227.596812
32629.715,7279,-1227.612967
32636.454,7280,-1227.557001
32636.554,7281,-1227.448963
32636.613,7282,-1227.462089
32661.586,7283,-1227.393213
32661.635,7284,-1227.532768
32661.670,7285,-1227.354123
32675.571,7286,-1227.200504
32675.622,7287,-1227.284525
32698.506,7288,-1227.272697
32698.550,7289,-1227.406122
32698.586,7290,-1227.519353
32716.669,7291,-1227.594504
32716.731,7292,-1227.656240
32730.569,7293,-1227.613400
32730.620,7294,-1227.745671
32746.119,7295,-1227.732040
32757.588,7296,-1227.674559
32757.642,7297,-1227.798031
32771.736,7298,-1227.730237
32771.882,7299,-1227.668429
32781.544,7300,-1227.036066
32804.573,7301,-1224.732934
32804.624,7302,-1222.070781
32814.278,7303,-1224.481374
32814.335,7304,-1227.802719
32822.547,7305,-1228.596778
32835.556,7306,-1228.636085
32835.603,7307,-1228.189652
32858.518,7308,-1227.731679
32858.564,7309,-1227.660640
32883.562,7310,-1227.545029
32883.610,7311,-1227.501828
32883.642,7312,-1227.512141
32892.503,7313,-1227.418311
32892.545,7314,-1227.362561
32917.731,7315,-1227.446727
32917.845,7316,-1227.297940
32917.918,7317,-1227.292387
32931.638,7318,-1227.224160
32931.687,7319,-1227.047606
32945.491,7320,-1227.003972
32945.534,7321,-1226.842420
32958.563,7322,-1226.779746
32972.565,7323,-1226.631392
32972.646,7324,-1226.411781
32987.953,7325,-1226.337929
32988.005,7326,-1226.092715
32996.527,7327,-1225.932101
33019.658,7328,-1225.826659
33019.717,7329,-1225.713644
33025.666,7330,-1225.752662
33025.732,7331,-1225.685517
33038.973,7332,-1225.826731
33052.586,7333,-1226.019728
33052.627,7334,-1226.234651
33066.642,7335,-1226.501140
33066.680,7336,-1226.758110
33114.572,7337,-1227.052654
33114.625,7338,-1227.113453
33114.660,7339,-1227.152759
33114.693,7340,-1227.284958
33114.727,7341,-1227.275005
33139.231,7342,-1227.301835
33139.277,7343,-1227.230578
33139.312,7344,-1227.215000
33146.599,7345,-1227.391626
33146.678,7346,-1227.354195
33168.566,7347,-1227.374533
33168.616,7348,-1227.326861
33168.651,7349,-1227.319144
33189.108,7350,-1227.351166
33189.988,7351,-1227.215721
33201.576,7352,-1227.197691
33201.626,7353,-1227.231227
33211.487,7354,-1227.144104
33233.652,7355,-1227.081142
33233.704,7356,-1227.181896
33244.364,7357,-1227.186079
33244.422,7358,-1227.197907
33252.565,7359,-1227.084316
33266.055,7360,-1227.214567
33266.114,7361,-1227.162712
33289.308,7362,-1227.106818
33289.945,7363,-1227.302484
33290.906,7364,-1227.153985
33314.699,7365,-1227.242551
33314.803,7366,-1227.205119
33321.945,7367,-1227.287122
33321.994,7368,-1227.297796
33346.078,7369,-1227.300392
33346.128,7370,-1227.272914
33346.163,7371,-1227.236564
33360.554,7372,-1227.284814
33360.605,7373,-1227.283516
33385.755,7374,-1227.160188
33386.166,7375,-1227.283804
33386.210,7376,-1227.324120
33401.533,7377,-1227.133286
33401.582,7378,-1227.119223
33424.360,7379,-1227.122107
33424.467,7380,-1227.168121
33424.534,7381,-1226.997986
33448.673,7382,-1226.930336
33448.723,7383,-1226.932067
33455.480,7384,-1226.952405
33455.517,7385,-1226.950458
33469.689,7386,-1227.010752
33482.553,7387,-1227.189541
33482.601,7388,-1227.198701
33496.620,7389,-1227.233535
33496.668,7390,-1227.345035
33505.668,7391,-1227.335660
33528.587,7392,-1227.287194
33528.639,7393,-1227.368186
33560.568,7394,-1227.345107
33560.623,7395,-1227.314456
33560.658,7396,-1226.772462
33560.691,7397,-1224.437885
33560.725,7398,-1221.615333
33577.230,7399,-1223.754893
33577.396,7400,-1227.339194
33601.523,7401,-1227.952155
33601.573,7402,-1228.233502
33601.609,7403,-1227.982374
33615.968,7404,-1227.383909
33616.077,7405,-1227.260509
33633.521,7406,-1227.106457
33633.570,7407,-1227.142229
33640.494,7408,-1226.954785
33664.550,7409,-1226.868960
33664.599,7410,-1227.009598
33673.494,7411,-1226.933726
33673.532,7412,-1226.821144
33682.546,7413,-1226.948294
33695.549,7414,-1226.627930
33695.600,7415,-1226.733011
33719.329,7416,-1226.480225
33719.385,7417,-1226.464286
33719.421,7418,-1226.373990
33743.873,7419,-1226.150990
33743.930,7420,-1226.125819
33758.574,7421,-1225.909959
33758.624,7422,-1225.739175
33758.659,7423,-1225.629406
33786.569,7424,-1225.446938
33788.669,7425,-1225.428908
33811.569,7426,-1225.306301
33811.620,7427,-1225.428764
33835.599,7428,-1225.522955
33835.674,7429,-1225.670804
33835.714,7430,-1225.983379
33860.595,7431,-1226.249291
33860.683,7432,-1226.438755
33866.549,7433,-1226.752412
33866.598,7434,-1226.882303
33894.429,7435,-1226.892544
33917.574,7436,-1227.010896
33917.625,7437,-1227.070252
33917.660,7438,-1227.122540
33917.694,7439,-1226.991207
33943.720,7440,-1227.191561
33948.510,7441,-1227.119439
33948.553,7442,-1227.160692
33948.588,7443,-1227.211899
33948.622,7444,-1227.046596
33955.480,7445,-1227.113309
33955.517,7446,-1227.147278
33955.551,7447,-1227.078762
33966.393,7448,-1227.013709
33966.444,7449,-1226.938774
34015.515,7450,-1226.831097
34015.632,7451,-1226.864777
34015.689,7452,-1226.833332
34015.743,7453,-1226.875235
34015.802,7454,-1226.815807
34032.585,7455,-1226.962502
34032.668,7456,-1226.870908
34032.731,7457,-1226.897232
34047.554,7458,-1226.965820
34047.605,7459,-1226.893410
34078.574,7460,-1226.882519
34078.624,7461,-1226.815086
34078.659,7462,-1226.897376
34104.758,7463,-1226.786886
34104.838,7464,-1226.667164
34123.510,7465,-1226.781838
34123.554,7466,-1226.733732
34123.589,7467,-1226.917354
34148.562,7468,-1227.106385
34148.612,7469,-1227.139849
34150.472,7470,-1227.261951
34150.507,7471,-1227.270534
34175.585,7472,-1227.331260
34200.582,7473,-1227.390183
34200.634,7474,-1227.204110
34200.757,7475,-1227.387227
34200.800,7476,-1227.438505
34215.571,7477,-1227.346261
34215.623,7478,-1226.752268
34215.658,7479,-1224.390140
34220.514,7480,-1221.513930
34220.548,7481,-1223.909594
34233.673,7482,-1227.482860
34258.570,7483,-1228.045625
34258.622,7484,-1228.194628
34260.495,7485,-1227.879457
34260.531,7486,-1227.438577
34285.696,7487,-1227.299022
34285.824,7488,-1227.188676
34285.864,7489,-1227.031018
34310.573,7490,-1227.010824
34310.623,7491,-1227.034552
34317.500,7492,-1226.971950
34317.549,7493,-1226.993082
34325.490,7494,-1226.889299
34351.526,7495,-1226.766043
34351.578,7496,-1226.743325
34376.571,7497,-1226.624468
34376.623,7498,-1226.553068
34376.658,7499,-1226.398944
34402.458,7500,-1226.235372
34402.547,7501,-1226.078652
34408.535,7502,-1225.969315
34408.580,7503,-1225.828173
34426.579,7504,-1225.560169
34451.549,7505,-1225.397463
34451.599,7506,-1225.314523
34477.638,7507,-1225.244060
34477.819,7508,-1225.233098
34477.892,7509,-1225.273846
34503.556,7510,-1225.423282
34503.606,7511,-1225.793915
34503.642,7512,-1225.980206
34503.676,7513,-1226.466522
34530.600,7514,-1226.673006
34530.681,7515,-1226.792223
34530.743,7516,-1226.936178
