timestamp_ms,sample_index,raw_ecg_mv
9.020,126030,4.993918
9.079,126031,4.409516
15.245,126032,4.475219
15.288,126033,4.380668
30.327,126034,4.623141
42.086,126035,4.495990
42.161,126036,4.562703
56.953,126037,4.715312
57.032,126038,4.771278
71.141,126039,4.982451
71.195,126040,5.248291
84.590,126041,4.841092
97.913,126042,4.725842
97.965,126043,4.932254
111.872,126044,5.312191
111.921,126045,5.222399
120.961,126046,5.410276
143.912,126047,5.571324
143.967,126048,5.682030
149.947,126049,5.835289
149.983,126050,5.772759
162.908,126051,5.711889
176.904,126052,5.729631
176.955,126053,5.263364
190.933,126054,5.107005
190.970,126055,4.947039
199.884,126056,4.701681
222.925,126057,4.731612
222.996,126058,4.313162
230.901,126059,4.479330
230.946,126060,4.366676
243.023,126061,4.359320
257.942,126062,3.702869
257.992,126063,3.024997
295.027,126064,4.441466
295.076,126065,4.800271
295.108,126066,3.685343
295.138,126067,1.713826
295.169,126068,1.855185
310.196,126069,2.830485
310.244,126070,2.203027
334.889,126071,3.900770
334.939,126072,4.167693
334.973,126073,2.966795
349.969,126074,3.331947
350.011,126075,2.776250
368.744,126076,2.658259
368.788,126077,2.839645
376.824,126078,2.906357
389.876,126079,3.657360
389.925,126080,2.009309
413.409,126081,1.918219
413.517,126082,2.931961
419.844,126083,3.272735
437.850,126084,4.185218
437.893,126085,4.177645
445.248,126086,4.456684
445.301,126087,4.668289
477.860,126088,4.562342
482.396,126089,4.347492
482.468,126090,2.663740
486.009,126091,1.786164
486.073,126092,1.975195
497.821,126093,1.694137
511.945,126094,1.604850
511.980,126095,1.555880
525.886,126096,1.529123
525.946,126097,1.639757
539.825,126098,1.560784
539.863,126099,1.488807
552.916,126100,1.571458
568.220,126101,1.549533
568.264,126102,1.274245
581.998,126103,0.692656
582.068,126104,4.006717
591.089,126105,7.634363
612.850,126106,9.119347
612.906,126107,5.171986
620.820,126108,1.161952
620.862,126109,3.365267
629.843,126110,2.726270
654.864,126111,2.759806
654.911,126112,2.216370
660.814,126113,1.896655
660.853,126114,2.528079
670.635,126115,2.020704
692.871,126116,1.938341
692.920,126117,2.807623
704.820,126118,2.797309
704.858,126119,3.207321
754.122,126120,3.914113
754.226,126121,3.614880
754.277,126122,3.912598
754.314,126123,4.039677
754.375,126124,4.263614
767.421,126125,4.408795
767.467,126126,4.468728
767.506,126127,4.616361
789.986,126128,4.727429
790.041,126129,4.861214
794.886,126130,4.961175
794.936,126131,5.072170
809.958,126132,5.231559
821.885,126133,5.187060
821.937,126134,5.251753
835.886,126135,5.197589
835.929,126136,4.892299
844.806,126137,4.898501
870.959,126138,4.261018
871.008,126139,2.790169
876.012,126140,2.047100
876.057,126141,1.787102
884.914,126142,1.815590
909.107,126143,1.592590
909.145,126144,1.584079
918.801,126145,1.611846
918.843,126146,1.587109
929.321,126147,1.686276
941.953,126148,1.597206
941.994,126149,1.617472
956.212,126150,1.580257
956.259,126151,1.503664
979.991,126152,1.633411
980.106,126153,1.526743
980.183,126154,1.591796
996.011,126155,1.610260
996.052,126156,1.545855
1010.204,126157,1.693055
1010.252,126158,1.607807
1024.061,126159,2.451342
1036.966,126160,2.147638
1037.014,126161,2.736439
1050.877,126162,3.002351
1050.910,126163,1.967767
1059.998,126164,3.647768
1084.914,126165,2.631213
1084.964,126166,1.462338
1089.825,126167,2.853781
1089.862,126168,3.280885
1104.229,126169,3.621804
1119.812,126170,4.153701
1120.154,126171,1.979955
1131.903,126172,1.699258
1131.950,126173,1.691252
1140.801,126174,1.273379
1169.936,126175,1.349251
1170.028,126176,1.356247
1172.340,126177,1.392669
1195.945,126178,1.267898
1195.993,126179,1.568862
1196.026,126180,2.551519
1196.058,126181,1.620934
1210.992,126182,1.401612
1211.051,126183,1.118174
1238.913,126184,0.694243
1238.964,126185,0.931379
1238.999,126186,4.493466
1264.512,126187,7.648210
1268.431,126188,8.920075
1268.478,126189,4.681703
1268.604,126190,1.488951
1278.969,126191,3.724938
1291.847,126192,3.999793
1291.887,126193,3.827783
1305.878,126194,1.799290
1305.923,126195,2.977974
1316.787,126196,2.115832
1339.943,126197,3.195637
1339.988,126198,3.368873
1345.339,126199,3.878557
1345.392,126200,3.250233
1368.657,126201,3.827206
1370.833,126202,4.332346
1370.874,126203,3.302305
1385.904,126204,2.454876
1385.957,126205,4.039460
1398.887,126206,4.066867
1411.853,126207,4.473633
1411.886,126208,4.584339
1425.878,126209,4.649898
1425.924,126210,4.863955
1449.917,126211,4.873186
1449.954,126212,5.288535
1449.985,126213,5.526248
1466.794,126214,5.144869
1466.842,126215,5.205090
1514.264,126216,5.000769
1514.323,126217,5.205090
1514.360,126218,5.048298
1521.900,126219,4.830995
1521.945,126220,4.755267
1521.979,126221,4.487119
1522.012,126222,4.779933
1530.896,126223,4.359825
1544.931,126224,2.538321
1544.964,126225,1.759984
1569.850,126226,1.598360
1569.899,126227,1.786741
1569.934,126228,1.829221
1589.958,126229,1.818980
1590.005,126230,2.164659
1604.259,126231,2.280630
1604.307,126232,2.257695
1610.219,126233,3.844011
1639.819,126234,4.249478
1639.873,126235,3.870263
1639.908,126236,4.113746
1639.942,126237,4.343741
1669.077,126238,2.665327
1669.119,126239,3.100148
1669.153,126240,3.687939
1682.899,126241,4.158605
1682.985,126242,4.393578
1695.964,126243,4.727789
1696.023,126244,4.153701
1704.881,126245,2.515891
1729.913,126246,3.223909
1729.965,126247,4.475219
1734.990,126248,4.464401
1735.088,126249,4.507818
1747.935,126250,4.927205
1761.954,126251,4.990240
1762.002,126252,5.019882
1777.019,126253,4.801209
1777.076,126254,4.803517
1785.943,126255,4.819239
1810.071,126256,2.736367
1810.134,126257,3.034373
1814.897,126258,3.702797
1814.947,126259,3.648705
1828.906,126260,3.204220
1842.427,126261,3.756599
1842.492,126262,4.348285
1855.983,126263,4.096436
1856.031,126264,4.471829
1879.909,126265,3.759917
1879.959,126266,2.080348
1879.994,126267,1.498615
1894.900,126268,4.102639
1894.949,126269,6.961901
1919.868,126270,10.278630
1919.916,126271,8.049928
1919.951,126272,2.490648
1934.866,126273,4.907733
1934.913,126274,4.898573
1958.935,126275,5.296035
1958.983,126276,5.076209
1959.018,126277,5.086666
1984.927,126278,4.909103
1984.979,126279,4.872249
1992.828,126280,5.157923
1992.867,126281,5.046422
2000.846,126282,5.212086
2014.906,126283,5.236824
2014.962,126284,5.221390
2037.902,126285,5.560722
2037.951,126286,5.431119
2039.817,126287,5.446914
2067.482,126288,5.560361
2067.542,126289,5.480595
2069.870,126290,5.677992
2085.019,126291,5.784732
2085.139,126292,5.918084
2095.917,126293,6.248834
2095.968,126294,6.430797
2121.083,126295,6.459213
2121.152,126296,6.545759
2142.920,126297,6.699306
2142.970,126298,6.713947
2143.005,126299,6.582253
2151.927,126300,6.619612
2151.977,126301,6.502414
2167.233,126302,6.305450
2167.294,126303,6.184718
2174.878,126304,5.936908
2198.979,126305,5.891544
2199.037,126306,5.724222
2205.371,126307,5.678929
2205.423,126308,5.751484
2219.208,126309,5.627723
2231.902,126310,5.663279
2231.956,126311,5.664144
2245.923,126312,5.660466
2246.000,126313,5.644744
2255.887,126314,5.611351
2278.899,126315,5.815167
2278.948,126316,5.942534
2286.865,126317,5.816826
2286.911,126318,5.747228
2295.964,126319,5.670491
2311.003,126320,5.815239
2311.052,126321,5.815455
2333.897,126322,5.716505
2333.948,126323,5.832116
2357.967,126324,5.808027
2358.019,126325,5.831394
2358.054,126326,5.825264
2368.405,126327,5.790213
2368.453,126328,5.896881
2380.969,126329,5.918734
2381.028,126330,5.903227
2389.883,126331,5.861613
2414.541,126332,6.075814
2414.824,126333,6.113895
2420.842,126334,6.031604
2420.887,126335,6.402309
2433.917,126336,6.420700
2446.938,126337,6.362931
2447.018,126338,6.345405
2460.900,126339,6.090599
2460.947,126340,6.056053
2470.881,126341,5.947726
2494.032,126342,5.805286
2494.084,126343,5.874667
2500.935,126344,5.732876
2501.007,126345,5.818124
2512.996,126346,5.834135
2524.914,126347,5.874451
2549.047,126348,5.774851
2549.151,126349,5.865003
2549.302,126350,5.697176
2549.337,126351,5.227231
2572.861,126352,5.449222
2572.911,126353,7.337222
2579.881,126354,11.096778
2579.929,126355,10.719870
2604.960,126356,6.071776
2605.009,126357,5.812210
2605.043,126358,6.255902
2621.046,126359,6.144979
2621.101,126360,6.364878
2642.919,126361,6.178011
2642.967,126362,6.168274
2644.821,126363,6.269389
2669.035,126364,6.308407
2669.084,126365,6.346775
2674.785,126366,6.341727
2674.822,126367,6.341583
2691.264,126368,6.511862
2700.890,126369,6.421566
2700.942,126370,6.833092
2722.861,126371,6.777702
2722.906,126372,6.447962
2725.791,126373,6.722529
2748.490,126374,6.723250
2748.540,126375,6.978561
2755.939,126376,7.074771
2755.987,126377,7.213677
2768.970,126378,7.392539
2782.050,126379,7.518175
2782.110,126380,7.575800
2796.926,126381,7.696171
2796.976,126382,7.633786
2819.962,126383,7.787261
2820.047,126384,7.751705
2820.116,126385,7.612294
2838.463,126386,7.504472
2838.516,126387,7.246276
2861.922,126388,7.165212
2861.971,126389,6.745608
2862.005,126390,6.593792
2888.422,126391,6.664471
2888.473,126392,6.516838
2913.048,126393,6.533426
2913.154,126394,6.602591
2917.291,126395,6.604682
2947.106,126396,6.409377
2947.157,126397,6.357449
2972.911,126398,6.419618
2972.964,126399,6.485826
2972.999,126400,6.537249
2997.916,126401,6.542009
2997.966,126402,6.537177
3023.942,126403,6.812248
3023.996,126404,6.817369
3047.908,126405,6.358603
3048.024,126406,6.579800
3048.091,126407,6.531912
3070.884,126408,6.476883
3070.932,126409,6.477893
3070.968,126410,6.545687
3098.428,126411,6.615140
3098.521,126412,6.441976
3131.240,126413,6.587662
3131.294,126414,6.585787
3137.849,126415,6.780803
3137.891,126416,6.883072
3137.925,126417,6.642835
3139.781,126418,6.505299
3139.817,126419,6.636488
3172.701,126420,6.869657
3172.843,126421,7.107803
3172.910,126422,6.989740
3196.007,126423,7.185550
3196.057,126424,6.677669
3196.090,126425,6.743444
3196.123,126426,6.747772
3221.232,126427,6.499673
3221.332,126428,6.351463
3221.392,126429,6.272418
3248.003,126430,6.290304
3248.055,126431,6.403247
3248.094,126432,6.332784
3256.417,126433,6.420844
3256.580,126434,6.410387
3256.655,126435,6.332712
3256.753,126436,5.796415
3280.911,126437,5.406237
3307.012,126438,6.681059
3307.060,126439,9.563616
3307.093,126440,11.840280
3307.125,126441,8.823937
3331.980,126442,5.900126
3332.057,126443,6.760754
3332.124,126444,6.625165
3350.931,126445,6.710557
3350.980,126446,6.655817
3356.349,126447,6.554414
3356.398,126448,6.658197
3379.933,126449,6.528666
3405.069,126450,6.690074
3405.154,126451,6.763999
3405.199,126452,6.406636
3405.234,126453,6.617087
3431.937,126454,6.557875
3431.993,126455,6.624372
3432.030,126456,6.748854
3456.896,126457,6.790323
3456.945,126458,6.927499
3456.979,126459,6.923821
3482.983,126460,6.984403
3483.031,126461,7.167808
3511.039,126462,7.182809
3511.096,126463,7.366431
3511.131,126464,7.437831
3535.188,126465,7.555750
3535.242,126466,7.662130
3560.013,126467,7.635445
3560.089,126468,7.688310
3560.148,126469,7.549476
3560.205,126470,7.418286
3560.263,126471,7.326043
3571.001,126472,6.951876
3571.235,126473,6.763783
3591.920,126474,6.627906
3591.970,126475,6.592133
3617.542,126476,6.468733
3619.177,126477,6.182699
3619.214,126478,6.203975
3645.899,126479,6.241045
3645.946,126480,6.134305
3651.799,126481,6.168996
3651.834,126482,6.038816
3651.866,126483,6.115337
3676.898,126484,6.177794
3676.948,126485,5.987538
3676.983,126486,6.072641
3703.066,126487,5.997346
3703.114,126488,5.991793
3737.936,126489,6.049634
3737.990,126490,5.997635
3739.798,126491,6.079204
3768.343,126492,5.945058
3768.415,126493,5.939793
3768.471,126494,6.009823
3768.525,126495,5.926739
3791.901,126496,6.010689
3822.936,126497,5.797137
3823.026,126498,5.743117
3824.896,126499,5.826634
3824.947,126500,5.743622
3831.987,126501,5.689315
3832.034,126502,5.738646
3832.068,126503,5.817763
3857.156,126504,5.830024
3857.220,126505,5.693498
3881.903,126506,5.961646
3881.956,126507,5.901641
3881.990,126508,5.974916
3910.985,126509,6.102139
3911.037,126510,5.979316
3918.859,126511,6.029801
3918.932,126512,5.839400
3918.990,126513,5.641137
3944.949,126514,5.657942
3945.040,126515,5.424845
3945.103,126516,5.464944
3945.163,126517,5.403785
3972.034,126518,5.370321
4000.862,126519,5.356618
4000.919,126520,5.332962
4000.954,126521,5.374360
4000.987,126522,5.191171
4026.915,126523,5.147393
4052.341,126524,5.057529
4052.393,126525,3.329351
4052.429,126526,5.124458
4052.463,126527,7.059842
4076.926,126528,10.639527
4076.979,126529,9.655211
4077.014,126530,3.747223
4101.941,126531,5.249589
4101.992,126532,5.442514
4121.964,126533,5.460040
4122.018,126534,5.400323
4122.053,126535,5.293006
4127.952,126536,5.271370
4128.004,126537,5.271153
4129.799,126538,5.452828
4129.833,126539,5.519180
4154.982,126540,5.433716
4155.033,126541,5.388640
4155.067,126542,5.396573
4180.972,126543,5.499563
4181.036,126544,5.659240
4205.901,126545,5.439702
4205.954,126546,5.625920
4205.989,126547,5.690613
4234.904,126548,5.776726
4234.955,126549,5.674313
4239.829,126550,5.894933
4239.874,126551,6.076319
4239.909,126552,5.940803
4268.314,126553,6.218110
4268.385,126554,6.398487
4268.443,126555,6.337544
4268.498,126556,6.452650
4268.566,126557,6.293045
4293.372,126558,6.317927
4293.432,126559,6.051293
4293.467,126560,5.913541
4293.502,126561,5.854329
4319.451,126562,5.299281
4320.786,126563,5.199104
4320.822,126564,5.221173
4344.943,126565,4.872393
4345.000,126566,4.886817
4345.035,126567,2.754181
4352.909,126568,3.319542
4352.959,126569,4.786929
4352.993,126570,3.533094
4353.026,126571,4.686824
4378.943,126572,3.767201
4379.048,126573,4.078334
4379.114,126574,4.118938
4404.899,126575,3.272591
4430.202,126576,3.742175
4430.273,126577,3.980825
4430.317,126578,3.185324
4430.350,126579,4.034845
4450.950,126580,2.954679
4450.998,126581,4.402881
4455.816,126582,4.918118
4481.797,126583,4.711129
4481.848,126584,3.513982
4505.897,126585,3.390798
4505.946,126586,3.675895
4505.981,126587,3.153085
4506.014,126588,2.899289
4506.047,126589,3.362671
4535.892,126590,3.169096
4535.941,126591,4.751301
4545.000,126592,4.851117
4545.055,126593,4.264768
4545.089,126594,5.172780
4572.041,126595,5.170472
4572.094,126596,5.091787
4595.916,126597,4.759378
4595.968,126598,2.782669
4596.002,126599,2.625732
4621.895,126600,2.344746
4621.946,126601,2.329601
4636.901,126602,2.298084
4636.947,126603,2.167183
4636.980,126604,2.341501
4642.837,126605,2.267360
4642.875,126606,2.226323
4644.806,126607,2.274067
4644.843,126608,2.176198
4669.893,126609,2.094340
4695.060,126610,1.497245
4695.113,126611,1.906607
4695.147,126612,5.397511
4695.180,126613,8.841607
4728.310,126614,9.872946
4728.360,126615,5.123016
4728.395,126616,2.327942
4759.107,126617,4.599917
4759.158,126618,3.725875
4759.979,126619,4.739112
4760.023,126620,3.826702
4784.920,126621,3.425345
4816.455,126622,3.669621
4817.446,126623,3.940293
4819.897,126624,3.900410
4820.608,126625,3.984432
4821.803,126626,4.734713
4821.849,126627,4.761831
4821.890,126628,4.663817
4847.191,126629,4.882562
4847.285,126630,4.766735
4872.894,126631,4.963483
4872.942,126632,5.026084
4901.898,126633,5.030123
4901.953,126634,5.104841
4901.988,126635,5.286948
4910.822,126636,5.513194
4935.875,126637,5.648782
4935.925,126638,5.600389
4960.883,126639,5.965757
4960.931,126640,6.032686
4960.965,126641,5.871999
4960.998,126642,5.907771
4961.030,126643,5.855555
4987.907,126644,5.707634
4987.957,126645,5.294377
5018.074,126646,5.261633
5018.123,126647,4.929513
5018.159,126648,3.120631
5042.922,126649,3.358848
5042.977,126650,2.495336
5044.772,126651,2.412541
5044.807,126652,2.452352
5070.850,126653,2.374533
5101.014,126654,2.434610
5101.062,126655,2.130040
5101.094,126656,2.454299
5101.125,126657,3.085652
5111.158,126658,2.182473
5113.183,126659,3.200830
5113.231,126660,2.740045
5139.277,126661,3.235376
5139.530,126662,3.246483
5139.638,126663,3.059472
5163.150,126664,3.430177
5164.531,126665,3.492490
5188.739,126666,2.862940
5189.076,126667,3.200830
5189.117,126668,2.930590
5217.999,126669,3.512468
5218.051,126670,2.760672
5241.904,126671,4.194882
5241.954,126672,4.311575
5241.989,126673,3.163110
5242.023,126674,2.717110
5268.579,126675,2.769254
5294.062,126676,2.403670
5294.104,126677,3.183377
5294.135,126678,3.939860
5294.164,126679,4.777409
5319.968,126680,4.660932
5345.106,126681,4.263182
5345.157,126682,4.968892
5345.189,126683,4.789742
5345.221,126684,4.731539
5371.874,126685,3.213956
5395.998,126686,2.314527
5396.048,126687,2.264114
5396.082,126688,1.941370
5396.115,126689,2.045946
5421.932,126690,2.024166
5421.982,126691,1.886485
5422.016,126692,2.033902
5432.926,126693,1.910863
5432.977,126694,1.946995
5457.009,126695,1.931850
5482.017,126696,1.773615
5482.075,126697,1.545350
5482.111,126698,0.975517
5482.145,126699,2.928210
5509.124,126700,6.849463
5509.171,126701,9.871143
5509.202,126702,7.819139
5526.019,126703,1.573622
5526.081,126704,2.415858
5551.023,126705,2.210600
5551.085,126706,2.789304
5551.117,126707,2.950424
5576.954,126708,2.047822
5577.012,126709,2.360036
5601.932,126710,2.372225
5601.971,126711,2.250051
5602.003,126712,2.810796
5634.936,126713,2.699152
5634.987,126714,3.346948
5640.833,126715,3.665654
5640.872,126716,3.739723
5640.905,126717,4.649104
5669.831,126718,4.324557
5669.880,126719,4.478825
5669.915,126720,4.726779
5669.948,126721,4.741781
5695.108,126722,5.020891
5720.902,126723,4.937302
5720.950,126724,5.178405
5720.984,126725,5.373566
5721.018,126726,5.310748
5751.098,126727,5.484706
5751.146,126728,5.610414
5751.178,126729,5.714774
5754.083,126730,5.611495
5754.120,126731,5.548461
5778.968,126732,5.436240
5779.063,126733,5.122078
5779.156,126734,4.522819
5803.309,126735,3.163327
5803.366,126736,2.332990
5828.908,126737,2.314095
5828.958,126738,2.128742
5828.993,126739,2.083089
5859.908,126740,2.109341
5859.956,126741,1.949736
5864.922,126742,2.108692
5864.985,126743,2.051428
5865.024,126744,2.126434
5891.843,126745,1.998418
5891.888,126746,2.038734
5891.922,126747,2.505433
5891.956,126748,2.135810
5918.087,126749,2.474421
5920.266,126750,2.424369
5920.306,126751,2.206778
5945.528,126752,2.549932
5945.636,126753,2.016016
5975.501,126754,2.375614
5975.548,126755,2.453650
5975.582,126756,2.704850
5981.808,126757,2.976676
5981.846,126758,2.183771
6005.965,126759,2.350155
6006.012,126760,2.344530
6006.045,126761,3.552784
6030.900,126762,3.986812
6030.940,126763,2.048687
6055.994,126764,2.291593
6056.042,126765,2.253729
6056.075,126766,2.506082
6079.674,126767,3.394909
6079.755,126768,3.226289
6079.791,126769,3.953203
6079.825,126770,4.454665
6105.029,126771,4.621987
6105.078,126772,4.767095
6105.109,126773,4.615712
6131.623,126774,3.799944
6131.727,126775,2.445644
6131.794,126776,2.068376
6157.048,126777,1.956732
6157.096,126778,1.870547
6157.129,126779,1.836794
6157.160,126780,1.952982
6185.348,126781,1.786164
6185.393,126782,1.846169
6185.574,126783,1.772533
6192.461,126784,1.683535
6192.978,126785,1.817970
6194.016,126786,1.345285
6194.051,126787,1.052976
6194.424,126788,1.236453
6219.144,126789,5.114217
6219.217,126790,9.045711
6243.881,126791,9.111053
6243.931,126792,4.289722
6243.965,126793,1.974907
6272.866,126794,4.483297
6272.912,126795,4.855661
6282.312,126796,4.708749
6282.410,126797,3.698469
6282.484,126798,1.575136
6307.123,126799,1.571819
6307.171,126800,1.870186
6309.198,126801,1.763302
6309.245,126802,2.132997
6359.025,126803,2.765071
6359.100,126804,2.934773
6359.134,126805,4.135382
6359.166,126806,3.706980
6359.198,126807,4.240103
6386.984,126808,4.421128
6412.148,126809,4.533277
6412.194,126810,3.920387
6414.172,126811,4.425816
6414.220,126812,4.807844
6438.899,126813,4.926917
6438.951,126814,4.996731
6438.986,126815,5.257018
6466.336,126816,5.226005
6471.358,126817,5.384457
6488.945,126818,5.493432
6488.997,126819,5.404290
6489.033,126820,5.402992
6512.014,126821,5.204729
6512.062,126822,4.967810
6536.142,126823,4.158822
6536.322,126824,2.598037
6536.439,126825,2.431653
6562.947,126826,2.190767
6563.000,126827,4.072564
6563.036,126828,1.985508
6563.069,126829,1.481739
6588.110,126830,1.883384
6590.163,126831,1.665793
6590.211,126832,1.756306
6610.954,126833,1.795179
6611.036,126834,1.753854
6611.100,126835,1.840400
6635.972,126836,1.794963
6636.022,126837,1.848549
6636.057,126838,1.882447
6636.090,126839,1.837875
6661.880,126840,1.921537
6690.231,126841,1.797487
6690.364,126842,1.787462
6690.405,126843,1.772461
6690.444,126844,2.027916
6702.557,126845,1.819917
6702.690,126846,1.751041
6703.058,126847,3.426715
6706.894,126848,3.445611
6706.959,126849,2.013708
6733.514,126850,1.615957
6733.577,126851,2.930158
6755.874,126852,3.084498
6755.925,126853,1.633411
6755.961,126854,1.622088
6781.931,126855,1.729621
6781.980,126856,1.644013
6811.885,126857,3.132459
6811.937,126858,4.245872
6811.971,126859,2.894674
6837.168,126860,3.804632
6837.255,126861,4.016381
6837.317,126862,4.362421
6865.319,126863,4.352252
6865.482,126864,3.814224
6890.927,126865,2.189829
6890.976,126866,1.557322
6911.015,126867,1.554293
6911.066,126868,1.601821
6911.100,126869,1.414738
6918.545,126870,1.573261
6918.593,126871,1.589200
6919.865,126872,1.470993
6919.901,126873,1.595186
6919.934,126874,1.477123
6943.921,126875,1.565833
6943.970,126876,1.141613
6969.877,126877,0.717827
6969.925,126878,1.666659
6969.959,126879,5.535840
6994.986,126880,9.277582
6995.035,126881,8.084762
7021.996,126882,2.132132
7022.059,126883,1.680506
7022.094,126884,1.827201
7029.981,126885,3.097480
7030.027,126886,3.543264
7030.061,126887,2.106312
7030.092,126888,2.197979
7054.434,126889,2.163144
7081.008,126890,2.629266
7081.058,126891,1.863407
7081.092,126892,2.565222
7081.125,126893,3.689454
7110.989,126894,2.449323
7118.929,126895,3.776505
7119.016,126896,4.137401
7119.068,126897,3.784655
7119.118,126898,4.479330
7142.936,126899,4.424157
7142.987,126900,4.188680
7143.021,126901,4.446875
7169.072,126902,4.655307
7169.142,126903,4.832221
7195.027,126904,4.775173
7195.078,126905,4.994134
7195.112,126906,5.106067
7212.086,126907,5.210716
7212.132,126908,5.288102
7219.882,126909,5.172780
7219.930,126910,5.204946
7219.965,126911,4.931316
7244.950,126912,4.714879
7245.000,126913,3.670125
7245.034,126914,2.052942
7245.067,126915,2.028493
7270.853,126916,1.853454
7295.971,126917,1.727025
7296.020,126918,1.752483
7296.052,126919,1.629949
7296.084,126920,1.778736
7316.609,126921,1.673655
7320.996,126922,1.737699
7321.043,126923,1.736040
7321.078,126924,1.559197
7321.115,126925,1.735319
7346.896,126926,1.598864
7346.948,126927,1.637305
7346.984,126928,1.684905
7375.247,126929,1.661033
7377.372,126930,1.807440
7398.880,126931,1.705172
7398.935,126932,1.649494
7398.970,126933,1.837010
7417.814,126934,2.076165
7418.165,126935,2.217668
7420.785,126936,1.671707
7420.850,126937,2.566520
7420.889,126938,1.694065
7447.049,126939,1.533234
7447.142,126940,1.777870
7447.218,126941,2.791251
7447.289,126942,3.341756
7474.971,126943,1.680722
7498.086,126944,1.613721
7498.173,126945,1.693993
7499.836,126946,1.826624
7499.880,126947,1.917209
7522.596,126948,2.151244
7548.050,126949,3.141546
7548.101,126950,4.324413
7548.136,126951,3.397578
7548.186,126952,4.367974
7572.936,126953,4.217168
7599.124,126954,3.844371
7599.173,126955,2.842241
7599.207,126956,1.791213
7599.240,126957,1.690531
7606.001,126958,1.948654
7606.087,126959,1.715485
7606.125,126960,1.727890
7610.896,126961,1.630886
7610.946,126962,1.589705
7610.981,126963,1.862757
7611.014,126964,2.096504
7636.936,126965,1.449573
7636.986,126966,1.356608
7637.024,126967,1.104831
7664.362,126968,0.927196
7664.417,126969,1.755296
7687.892,126970,5.596855
7689.807,126971,9.251474
7689.844,126972,8.358680
7714.919,126973,2.859911
7734.860,126974,3.356613
7734.934,126975,2.971700
7734.987,126976,2.601499
7735.022,126977,2.570198
7740.906,126978,3.205302
7740.955,126979,3.063150
7740.990,126980,3.844227
7769.280,126981,3.402771
7769.361,126982,4.434110
7792.075,126983,4.634752
7792.142,126984,2.739324
7792.177,126985,4.284025
7818.664,126986,4.423075
7818.719,126987,4.317056
7837.899,126988,4.547701
7837.950,126989,4.617587
7837.986,126990,4.725337
7838.019,126991,4.760965
7863.113,126992,5.058323
7863.165,126993,5.438764
7863.199,126994,5.079526
7891.120,126995,5.183237
7891.170,126996,5.663423
7919.533,126997,5.295891
7919.584,126998,5.588417
7919.619,126999,5.662702
7938.043,127000,5.729631
7938.106,127001,5.755162
7942.901,127002,5.704316
7969.322,127003,5.820143
7969.374,127004,5.233578
7991.997,127005,5.225140
7992.049,127006,2.550654
7992.085,127007,2.174683
8019.140,127008,3.011871
8019.189,127009,2.958069
8044.924,127010,3.262638
8044.974,127011,4.228058
8045.008,127012,4.433749
8053.032,127013,4.833087
8053.085,127014,4.839073
8053.118,127015,4.103144
8053.150,127016,4.220413
8078.904,127017,1.958102
8078.953,127018,2.520002
8078.988,127019,3.329423
8103.902,127020,3.622525
8103.953,127021,4.657903
8127.882,127022,3.895217
8127.931,127023,4.711562
8129.809,127024,4.811090
8145.934,127025,5.242088
8145.987,127026,4.163726
8153.260,127027,5.176530
8153.311,127028,3.176020
8153.347,127029,2.188459
8179.945,127030,3.060409
8180.027,127031,4.422859
8180.085,127032,4.671967
8180.130,127033,4.190339
8207.042,127034,4.316335
8234.912,127035,5.070800
8234.963,127036,4.951727
8234.998,127037,3.720394
8235.032,127038,5.241511
8241.883,127039,3.374859
8266.897,127040,3.411858
8266.950,127041,4.941269
8266.988,127042,5.146455
8267.026,127043,5.429244
8293.909,127044,5.345295
8293.960,127045,5.197517
8293.996,127046,5.086594
8319.419,127047,5.239059
8319.474,127048,5.290771
8338.853,127049,4.110716
8338.895,127050,3.686353
8338.930,127051,2.467569
8347.970,127052,2.302988
8348.021,127053,2.873398
8348.062,127054,3.055721
8348.121,127055,4.457045
8371.894,127056,4.341361
8396.969,127057,4.512939
8397.019,127058,3.200109
8397.053,127059,2.879528
8397.087,127060,6.062833
8423.897,127061,9.415190
8439.939,127062,9.771110
8439.983,127063,4.987427
8440.017,127064,2.513295
8440.050,127065,5.146960
8446.004,127066,5.181506
8446.046,127067,5.235525
8446.080,127068,5.361017
8470.887,127069,5.599884
8470.936,127070,5.254349
8496.005,127071,5.035244
8496.055,127072,5.364190
8496.090,127073,4.291165
8523.015,127074,4.931244
8523.118,127075,5.281467
8540.900,127076,5.469993
8540.950,127077,5.440928
8540.987,127078,5.515213
8541.026,127079,5.811056
8541.061,127080,5.870917
8547.953,127081,5.897458
8547.997,127082,5.612938
8548.030,127083,6.278621
8573.888,127084,5.600749
8573.936,127085,5.879644
8597.934,127086,6.276817
8597.984,127087,6.392212
8625.876,127088,6.527729
8625.945,127089,6.656682
8625.984,127090,6.786862
8653.064,127091,6.930384
8653.150,127092,6.878095
8657.789,127093,6.286626
8681.978,127094,6.318071
8682.028,127095,5.724149
8682.064,127096,5.508145
8682.097,127097,5.332313
8708.995,127098,5.491990
8709.054,127099,5.318682
8709.089,127100,5.316085
8733.935,127101,5.394265
8733.987,127102,5.594691
8755.032,127103,5.698763
8755.084,127104,5.347747
8755.118,127105,5.310676
8756.990,127106,5.458237
8757.032,127107,3.605432
8785.444,127108,5.144724
8785.526,127109,5.290194
8785.584,127110,5.355247
8810.908,127111,5.459175
8810.958,127112,5.285722
8835.917,127113,5.707561
8835.968,127114,5.766701
8836.004,127115,5.435951
8862.936,127116,5.813436
8862.985,127117,3.398299
8863.020,127118,5.170255
8863.053,127119,5.231919
8880.589,127120,5.121501
8880.641,127121,5.371763
8880.677,127122,5.293078
8905.962,127123,5.390803
8906.018,127124,5.658735
8906.052,127125,5.581637
8931.885,127126,5.246921
8931.934,127127,5.473671
8956.887,127128,5.305916
8956.939,127129,3.651734
8959.790,127130,4.381605
8959.827,127131,5.301372
8959.861,127132,5.419724
8986.891,127133,5.502808
8986.942,127134,5.810623
8995.738,127135,6.155653
8995.827,127136,6.104014
8995.885,127137,5.686141
9020.912,127138,5.600461
9020.962,127139,5.422609
9020.997,127140,3.683179
9021.032,127141,2.629410
9047.874,127142,3.785520
9047.926,127143,4.838352
9047.962,127144,4.847223
9077.910,127145,4.521089
9077.960,127146,5.620871
9077.995,127147,4.689060
9083.822,127148,5.273101
9083.859,127149,3.404357
9083.893,127150,1.849487
9083.927,127151,3.331226
9109.993,127152,6.071054
9110.044,127153,10.098038
9110.079,127154,10.155230
9137.004,127155,5.156552
9137.057,127156,5.792521
9161.043,127157,5.356690
9161.093,127158,5.214250
9161.127,127159,5.720976
9188.892,127160,4.310998
9188.963,127161,4.543879
9195.917,127162,4.534070
9195.966,127163,5.021541
9196.000,127164,5.139315
9196.033,127165,5.108159
9196.067,127166,6.090167
9223.011,127167,5.326759
9223.108,127168,4.692522
9223.164,127169,6.220923
9247.910,127170,3.433927
9247.960,127171,3.876754
9249.808,127172,5.413305
9249.843,127173,5.463502
9274.943,127174,5.682030
9274.992,127175,5.737348
9275.064,127176,6.543163
9293.088,127177,6.352762
9293.140,127178,5.773625
9293.174,127179,6.826168
9320.858,127180,6.241550
9320.907,127181,6.156663
9320.943,127182,6.277755
9320.976,127183,6.117934
9346.015,127184,6.224890
9370.881,127185,6.064059
9370.929,127186,6.046100
9370.963,127187,6.013718
9370.996,127188,5.392606
9381.901,127189,4.690935
9381.954,127190,5.533388
9381.989,127191,2.184636
9407.067,127192,2.383764
9407.140,127193,2.533128
9407.192,127194,4.829553
9407.232,127195,2.763268
9433.901,127196,5.464944
9457.911,127197,2.448529
9457.960,127198,3.105197
9459.857,127199,3.873076
9459.900,127200,2.688045
9483.003,127201,5.101596
9505.941,127202,2.531036
9506.000,127203,2.320009
9506.038,127204,3.210927
9506.562,127205,3.187704
9538.045,127206,3.457655
9538.115,127207,4.026695
9538.151,127208,4.193584
9557.894,127209,4.245656
9557.945,127210,2.174179
9560.800,127211,3.061491
9582.914,127212,3.918945
9583.001,127213,1.992432
9583.062,127214,2.284380
9583.123,127215,2.134223
9608.982,127216,2.232453
9609.051,127217,2.254955
9609.087,127218,5.359719
9632.925,127219,2.285534
9632.979,127220,1.816383
9657.974,127221,2.291593
9658.058,127222,2.472185
9659.826,127223,1.847828
9683.942,127224,2.071550
9683.990,127225,2.874047
9691.626,127226,3.045047
9691.668,127227,3.331514
9717.411,127228,4.402160
9740.024,127229,4.871311
9740.074,127230,4.940548
9740.108,127231,3.769653
9740.141,127232,4.429278
9772.982,127233,4.668217
9799.847,127234,1.729693
9799.898,127235,1.843068
9799.933,127236,2.022146
9799.965,127237,2.013564
9824.884,127238,1.839679
9856.156,127239,1.951179
9856.207,127240,4.619174
9856.239,127241,2.510265
9856.272,127242,2.312364
9863.082,127243,1.655985
9865.026,127244,1.617688
9865.079,127245,0.656523
9890.046,127246,4.535441
9890.094,127247,8.760614
9890.127,127248,9.866022
9890.158,127249,4.712139
9890.191,127250,3.712966
9916.860,127251,3.140392
9918.679,127252,3.735972
9947.994,127253,3.173280
9948.041,127254,4.149374
9949.895,127255,1.426999
9976.883,127256,1.879778
9976.980,127257,1.878408
10000.031,127258,2.036859
10000.075,127259,3.655341
10000.107,127260,5.217279
10026.283,127261,4.525344
10026.537,127262,1.650359
10026.576,127263,1.866724
10026.612,127264,1.873359
10045.152,127265,2.149802
10045.194,127266,3.365556
10045.302,127267,4.183631
10054.489,127268,3.941735
10054.532,127269,4.667279
10054.894,127270,5.054933
10054.927,127271,5.288391
10054.960,127272,5.245767
10079.828,127273,4.616794
10079.885,127274,5.015699
10104.934,127275,5.548028
10104.983,127276,5.010506
10105.016,127277,5.364623
10127.911,127278,5.168308
10127.979,127279,4.969757
10152.908,127280,4.160625
10152.957,127281,4.631867
10154.958,127282,4.254960
10160.969,127283,1.714187
10161.000,127284,1.795540
10167.567,127285,1.620212
10167.719,127286,1.611702
10167.760,127287,1.647691
10191.907,127288,1.359709
10191.954,127289,1.636800
10191.989,127290,1.650720
10192.022,127291,1.563164
10218.518,127292,1.540230
10242.961,127293,1.544413
10243.006,127294,1.792944
10244.857,127295,1.473012
10244.891,127296,1.501644
10267.220,127297,2.179948
10272.366,127298,1.502294
10272.410,127299,1.491764
10272.448,127300,1.392669
10272.486,127301,2.696339
10297.917,127302,2.190983
10298.033,127303,1.635430
10298.098,127304,1.412935
10324.474,127305,1.462843
10325.340,127306,2.021064
10355.936,127307,1.277707
10355.984,127308,1.230323
10356.018,127309,1.413584
10360.816,127310,2.953597
10360.850,127311,3.275043
10385.874,127312,1.169524
10385.920,127313,0.984677
10385.956,127314,1.497461
10439.843,127315,1.984354
10439.901,127316,1.044754
10439.937,127317,1.374710
10439.972,127318,1.820206
10451.080,127319,3.473882
10474.931,127320,1.551192
10474.978,127321,5.020675
10475.012,127322,4.902396
10475.046,127323,-1210.024593
10501.024,127324,0.974580
10526.862,127325,1.013669
10526.908,127326,1.115866
10526.943,127327,2.142445
10526.977,127328,1.086512
10556.966,127329,1.086945
10557.013,127330,0.939024
10557.046,127331,2.973358
10562.946,127332,0.899429
10562.979,127333,0.235405
10588.968,127334,1.418560
10589.008,127335,0.394433
10589.041,127336,0.393928
10614.175,127337,0.277308
10614.221,127338,4.058861
10639.042,127339,8.558674
10639.093,127340,7.970233
10639.127,127341,1.839967
10651.054,127342,0.797377
10651.101,127343,0.580795
10660.030,127344,0.995495
10660.080,127345,0.955684
10660.117,127346,1.088892
10687.095,127347,1.057159
10687.148,127348,0.882120
10687.184,127349,3.038701
10687.218,127350,1.571025
10712.047,127351,0.969387
10712.086,127352,0.572501
10712.118,127353,0.861565
10738.010,127354,1.066751
10738.060,127355,1.107355
10740.884,127356,1.125891
10760.013,127357,1.745488
10760.051,127358,1.599586
10760.082,127359,1.452818
10760.115,127360,2.075805
10768.567,127361,3.316874
10768.615,127362,3.920676
10768.650,127363,4.081579
10790.913,127364,4.045086
10790.962,127365,4.179232
10818.259,127366,4.317489
10818.311,127367,4.515752
10818.347,127368,4.415791
10846.970,127369,4.331481
10847.021,127370,4.398987
10852.654,127371,4.093984
10852.697,127372,3.149263
10852.754,127373,1.371681
10877.925,127374,1.442360
10877.974,127375,1.426638
10880.827,127376,1.237102
10880.862,127377,1.192675
10905.039,127378,1.164332
10930.367,127379,1.046557
10930.476,127380,1.308286
10930.540,127381,1.221596
10930.576,127382,1.327976
10953.060,127383,1.385312
10955.022,127384,1.371249
10955.061,127385,1.477772
10980.208,127386,1.741809
10980.264,127387,1.396130
10980.301,127388,2.053159
10980.334,127389,2.470454
10980.367,127390,3.331226
11005.944,127391,1.808738
11005.994,127392,4.224597
11006.029,127393,4.199138
11006.061,127394,4.033474
11032.895,127395,3.966040
11032.942,127396,3.545499
11032.977,127397,3.096975
11062.067,127398,2.390111
11062.116,127399,3.451381
11062.150,127400,2.651552
11087.948,127401,2.302988
11088.001,127402,4.359031
11090.398,127403,3.593677
11090.439,127404,4.374105
11115.169,127405,4.576045
11115.322,127406,4.570780
11115.361,127407,4.766158
11146.193,127408,4.768033
11146.282,127409,4.633021
11146.356,127410,4.655163
11153.899,127411,2.908593
11153.956,127412,2.871018
11153.989,127413,2.775457
11154.022,127414,2.502837
11180.885,127415,2.097874
11205.014,127416,1.794602
11205.065,127417,2.496346
11205.101,127418,1.927667
11205.134,127419,1.789410
11230.865,127420,1.806142
11230.908,127421,2.529306
11260.942,127422,1.672933
11260.994,127423,1.240348
11261.030,127424,1.600451
11266.670,127425,5.372484
11266.719,127426,9.190531
11266.758,127427,8.887620
11292.913,127428,3.041730
11292.965,127429,2.132709
11293.000,127430,2.793487
11293.034,127431,2.740189
11319.849,127432,1.972310
11343.240,127433,2.330466
11343.338,127434,2.970257
11344.887,127435,2.966795
11344.931,127436,2.056043
11369.879,127437,2.226611
11389.950,127438,4.131488
11389.997,127439,4.196253
11390.031,127440,2.870369
11390.064,127441,3.110317
11397.328,127442,4.147787
11420.878,127443,4.458631
11420.931,127444,4.343237
11447.926,127445,4.567607
11447.984,127446,4.623141
11448.019,127447,4.841236
11448.053,127448,5.021901
11448.087,127449,5.021324
11477.912,127450,5.017430
11477.959,127451,5.201845
11485.769,127452,5.610342
11485.872,127453,5.455280
11485.941,127454,5.372556
11486.005,127455,5.648999
11486.041,127456,5.549399
11511.000,127457,5.549543
11511.049,127458,5.369455
11535.991,127459,5.053851
11536.076,127460,4.718774
11536.140,127461,2.524978
11562.935,127462,2.312075
11562.986,127463,2.155066
11577.885,127464,2.655518
11577.933,127465,3.331514
11577.967,127466,2.123766
11585.371,127467,2.232092
11585.425,127468,2.223726
11609.998,127469,2.084892
11635.947,127470,2.174900
11635.999,127471,2.989514
11636.034,127472,2.657610
11636.069,127473,2.205912
11666.390,127474,2.660062
11666.449,127475,3.579901
11666.487,127476,2.796300
11667.327,127477,3.146739
11667.365,127478,2.800916
11674.575,127479,2.972926
11674.627,127480,3.748017
11674.661,127481,3.569299
11698.875,127482,4.428484
11698.921,127483,2.925253
11723.688,127484,2.943933
11723.778,127485,2.460646
11749.886,127486,3.627790
11749.947,127487,4.377494
11749.983,127488,4.472551
11759.879,127489,4.579796
11759.925,127490,4.978123
11784.888,127491,4.903405
11784.939,127492,4.948914
11784.974,127493,4.855156
11811.955,127494,4.570275
11812.006,127495,4.335159
11836.051,127496,2.936288
11836.210,127497,2.707590
11836.280,127498,2.347415
11867.808,127499,2.146772
11867.861,127500,2.226683
11874.414,127501,1.981758
11875.461,127502,1.983345
11875.497,127503,2.627535
11897.950,127504,2.495336
11898.002,127505,2.102562
11900.511,127506,1.445462
11900.567,127507,1.624612
11900.601,127508,5.273966
11924.920,127509,8.667938
11924.971,127510,9.635810
11951.184,127511,5.240285
11951.328,127512,2.616068
11951.394,127513,4.556933
11968.136,127514,4.517987
11968.187,127515,4.761758
11968.222,127516,4.468512
11968.256,127517,4.665404
11976.895,127518,4.710480
11976.946,127519,4.499452
11976.982,127520,4.617155
12001.891,127521,4.634320
12001.940,127522,4.611385
12001.975,127523,4.680549
12027.908,127524,4.703340
12027.961,127525,4.747334
12029.791,127526,4.594797
12029.827,127527,4.828615
12056.892,127528,4.766951
12056.943,127529,4.944154
12056.977,127530,5.000914
12066.563,127531,5.102100
12067.374,127532,5.345583
12067.416,127533,5.502375
12067.455,127534,5.487374
12067.506,127535,5.692777
12090.910,127536,5.661692
12090.961,127537,5.769875
12117.055,127538,5.825048
12117.109,127539,5.664865
12117.149,127540,5.642219
12141.986,127541,5.335125
12142.038,127542,5.180713
12167.959,127543,4.990168
12168.009,127544,4.770774
12168.045,127545,4.797675
12175.888,127546,4.573377
12175.934,127547,4.646508
12201.909,127548,4.633598
12201.958,127549,4.486182
12201.993,127550,4.617515
12226.887,127551,4.523469
12226.937,127552,4.430720
12251.914,127553,4.530032
12251.966,127554,4.408795
12252.001,127555,4.553471
12280.884,127556,4.674635
12280.935,127557,4.564145
12306.912,127558,4.627396
12306.962,127559,4.456540
12306.998,127560,4.628261
12307.032,127561,4.690863
12307.066,127562,4.522459
12331.923,127563,4.673842
12331.975,127564,4.118361
12357.102,127565,4.676439
12357.208,127566,4.641243
12357.275,127567,4.345472
12368.311,127568,4.318283
12368.380,127569,4.305012
12374.861,127570,4.507674
12374.909,127571,4.842895
12374.944,127572,4.779068
12400.952,127573,4.873042
12401.001,127574,4.892082
12401.036,127575,5.129723
12401.069,127576,4.910329
12426.943,127577,4.783756
12452.959,127578,4.701825
12453.010,127579,4.598475
12453.045,127580,4.386005
12453.079,127581,4.354415
12475.920,127582,3.704455
12480.853,127583,4.176491
12480.897,127584,3.210783
12480.932,127585,4.031166
12480.966,127586,4.092398
12507.916,127587,2.613327
12507.966,127588,4.026118
12508.002,127589,2.372080
12532.901,127590,1.419714
12532.952,127591,1.883384
12558.899,127592,5.371835
12558.947,127593,9.132257
12558.981,127594,9.155408
12590.911,127595,4.133074
12590.960,127596,2.699729
12594.851,127597,4.411464
12594.884,127598,4.635041
12619.902,127599,4.530032
12644.918,127600,4.461877
12644.970,127601,4.500967
12645.007,127602,4.408074
12645.041,127603,4.597033
12670.892,127604,4.457117
12697.000,127605,4.551596
12697.051,127606,4.578786
12697.086,127607,4.429494
12697.120,127608,4.700311
12705.095,127609,4.606481
12729.859,127610,4.681126
12729.908,127611,4.778635
12729.944,127612,4.781448
12729.978,127613,4.961824
12755.909,127614,4.917541
12755.957,127615,5.137296
12755.992,127616,5.225861
12782.121,127617,5.287453
12782.174,127618,5.555745
12782.210,127619,5.367364
12782.244,127620,5.584955
12782.278,127621,5.649720
12802.983,127622,5.543557
12803.033,127623,5.576444
12803.068,127624,5.381283
12803.101,127625,5.292213
12808.149,127626,5.035748
12808.195,127627,4.730313
12808.229,127628,4.763706
12835.230,127629,4.509044
12835.286,127630,4.494476
12860.002,127631,4.454520
12860.054,127632,4.255465
12860.090,127633,4.337539
12892.915,127634,3.673732
12892.966,127635,4.332923
12893.001,127636,4.191132
12901.892,127637,3.708206
12901.944,127638,3.866296
12901.979,127639,3.822735
12902.014,127640,4.305301
12925.899,127641,4.092830
12925.946,127642,3.400968
12925.980,127643,4.299170
12952.011,127644,3.448063
12952.067,127645,4.045374
12982.947,127646,3.164192
12984.814,127647,3.214317
12984.850,127648,4.124347
12990.893,127649,3.826413
12990.942,127650,3.152509
12990.976,127651,2.907006
12991.012,127652,2.653066
13017.354,127653,3.151066
13017.406,127654,4.192719
13017.445,127655,4.299242
13043.219,127656,4.611818
13073.781,127657,4.462886
13079.317,127658,4.823711
13079.413,127659,4.629415
13079.468,127660,4.593138
13080.933,127661,4.456900
13080.986,127662,4.126223
13085.835,127663,2.440307
13085.879,127664,1.935889
13085.912,127665,1.752844
13108.526,127666,1.790492
13108.574,127667,1.778880
13108.608,127668,1.832178
13130.883,127669,1.775130
13130.932,127670,1.712023
13130.967,127671,1.959833
13131.000,127672,1.647186
13151.884,127673,1.289607
13151.933,127674,0.991600
13151.967,127675,3.788693
13167.975,127676,7.238559
13168.022,127677,9.628598
13168.061,127678,6.547274
13168.100,127679,1.222894
13168.138,127680,3.981186
13179.883,127681,3.843073
13179.944,127682,4.033691
13193.152,127683,3.766841
13193.213,127684,2.852483
13200.893,127685,2.946890
13200.944,127686,3.193041
13200.979,127687,3.022185
13218.808,127688,3.317379
13218.888,127689,3.309157
13218.944,127690,3.318172
13239.912,127691,3.359858
13239.965,127692,4.228563
13245.837,127693,3.845958
13245.874,127694,3.939932
13262.983,127695,4.306599
13285.008,127696,4.480845
13285.052,127697,4.539335
13285.085,127698,4.663457
13285.118,127699,4.711922
13307.991,127700,4.854435
13310.877,127701,5.018079
13310.918,127702,4.985335
13332.010,127703,5.093879
13332.131,127704,5.145806
13357.088,127705,5.153523
13357.161,127706,5.226294
13357.196,127707,4.800343
13386.899,127708,4.840010
13386.945,127709,4.747911
13386.979,127710,3.937552
13387.012,127711,2.607630
13395.694,127712,2.131483
13409.052,127713,1.997841
13422.869,127714,1.813931
13422.925,127715,1.707552
13422.961,127716,1.823668
13430.952,127717,1.729549
13452.983,127718,1.941370
13453.033,127719,1.772894
13461.000,127720,1.716206
13461.049,127721,3.200469
13473.905,127722,3.530498
13486.886,127723,1.982191
13486.936,127724,1.877038
13502.312,127725,2.107106
13502.395,127726,2.201801
13509.918,127727,1.850497
13532.859,127728,2.526493
13532.905,127729,2.350300
13540.120,127730,1.896222
13540.163,127731,2.624722
13552.981,127732,2.431148
13567.699,127733,3.133757
13568.019,127734,4.018689
13581.844,127735,4.175914
13581.887,127736,4.358310
13595.915,127737,4.515968
13595.981,127738,4.714447
13608.646,127739,4.624655
13622.624,127740,4.493466
13622.684,127741,3.795833
13636.894,127742,2.711052
13636.943,127743,2.497572
13644.874,127744,1.861748
13668.079,127745,1.831024
13668.332,127746,1.789338
13677.989,127747,1.862397
13678.046,127748,1.865137
13688.554,127749,1.991927
13702.809,127750,1.782342
13702.926,127751,2.125064
13719.418,127752,3.857497
13719.534,127753,1.429883
13727.068,127754,1.108870
13747.869,127755,2.762907
13747.913,127756,6.396611
13757.910,127757,9.633574
13757.959,127758,7.603639
13780.859,127759,1.678342
13780.902,127760,3.636949
13780.936,127761,4.013785
13795.931,127762,4.105379
13795.982,127763,4.255969
13824.771,127764,4.038667
13824.824,127765,3.508717
13824.859,127766,4.158173
13838.194,127767,3.662408
13838.247,127768,4.211615
13851.915,127769,4.298161
13861.837,127770,4.224957
13861.907,127771,4.440384
13875.832,127772,4.307753
13875.883,127773,4.458703
13897.887,127774,4.581599
13897.935,127775,4.457045
13900.804,127776,4.674635
13923.863,127777,4.906507
13923.904,127778,4.919705
13932.590,127779,5.203431
13932.730,127780,5.171193
13940.929,127781,5.389721
13963.419,127782,5.398520
13963.579,127783,5.448284
13970.012,127784,5.613298
13970.066,127785,5.456939
13982.908,127786,5.615606
13997.007,127787,5.481100
13997.056,127788,5.318465
14010.917,127789,5.235598
14010.966,127790,4.925186
14034.920,127791,4.941918
14034.970,127792,4.724976
14035.005,127793,4.702691
14050.922,127794,4.470026
14050.982,127795,4.345112
14072.909,127796,4.411464
14072.959,127797,4.284746
14076.842,127798,4.322393
14090.050,127799,4.561332
14090.104,127800,3.904737
14112.937,127801,4.685454
14112.984,127802,4.707595
14114.993,127803,4.693027
14137.902,127804,4.833159
14137.951,127805,4.659346
14144.964,127806,4.824072
14145.021,127807,4.788011
14157.990,127808,4.793492
14172.761,127809,4.956559
14172.811,127810,4.832582
14186.001,127811,4.917397
14186.055,127812,4.786640
14194.981,127813,4.822052
14218.244,127814,5.057096
14218.297,127815,5.030700
14229.360,127816,5.268341
14229.418,127817,5.298632
14235.837,127818,5.550048
14249.882,127819,5.672294
14249.930,127820,5.361450
14275.374,127821,5.573992
14275.424,127822,5.210788
14297.002,127823,5.176818
14297.053,127824,5.105562
14297.089,127825,4.856021
14306.935,127826,4.962978
14325.609,127827,4.921436
14328.512,127828,4.959877
14328.562,127829,5.010939
14329.865,127830,4.829481
14352.934,127831,5.028176
14352.987,127832,4.972281
14359.892,127833,4.674996
14359.942,127834,3.135776
14373.886,127835,3.611563
14387.820,127836,6.323120
14387.863,127837,9.807315
14400.893,127838,10.045750
14400.942,127839,5.558630
14409.920,127840,4.733270
14433.203,127841,5.598225
14433.254,127842,5.478215
14441.944,127843,5.534253
14441.995,127844,5.479297
14468.512,127845,5.440856
14468.562,127846,5.460184
14468.597,127847,5.504972
14480.994,127848,5.495596
14481.056,127849,5.681598
14505.103,127850,5.634286
14505.151,127851,5.659456
14505.182,127852,5.852887
14519.859,127853,5.702152
14519.906,127854,5.834135
14543.047,127855,5.911666
14543.092,127856,5.989918
14544.962,127857,6.089590
14568.873,127858,6.059659
14568.933,127859,6.304584
14574.852,127860,6.370936
14574.888,127861,6.490225
14588.045,127862,6.665553
14602.183,127863,6.682862
14602.231,127864,6.921441
14616.484,127865,6.805685
14618.284,127866,6.777486
14624.881,127867,7.013396
14656.937,127868,6.756426
14656.982,127869,6.685242
14657.013,127870,6.519723
14657.043,127871,6.334659
14666.782,127872,6.259076
14681.917,127873,5.978595
14681.967,127874,6.059515
14696.068,127875,5.837380
14696.100,127876,5.957535
14719.938,127877,5.984941
14719.985,127878,5.733814
14720.021,127879,5.961430
14734.965,127880,5.996192
14735.013,127881,5.979027
14779.717,127882,6.084974
14779.804,127883,5.963882
14779.865,127884,6.163226
14779.920,127885,6.056630
14779.991,127886,6.012131
14789.900,127887,6.102716
14789.948,127888,6.010328
14803.545,127889,6.208807
14816.919,127890,6.022877
14816.992,127891,6.011049
14831.882,127892,6.138344
14831.925,127893,5.990422
14839.937,127894,6.052808
14862.940,127895,6.074444
14862.995,127896,6.113173
14872.081,127897,6.301483
14872.123,127898,6.100408
14882.813,127899,6.573165
14897.988,127900,6.573237
14898.043,127901,6.472628
14912.047,127902,6.503207
14912.168,127903,6.389255
14935.925,127904,6.247825
14935.971,127905,5.932148
14936.005,127906,5.964242
14950.056,127907,6.027421
14950.107,127908,5.717370
14974.875,127909,5.943616
14974.925,127910,5.684915
14974.960,127911,5.751556
14989.825,127912,5.823894
14989.863,127913,5.833486
15013.085,127914,5.792521
15013.132,127915,5.323225
15017.164,127916,5.108808
15038.863,127917,6.294343
15038.910,127918,8.740709
15045.366,127919,11.288045
15045.409,127920,8.312595
15057.921,127921,5.429605
15071.886,127922,6.304440
15071.932,127923,5.856565
15085.903,127924,6.120241
15085.943,127925,6.068386
15095.033,127926,6.140868
15118.812,127927,6.169717
15118.861,127928,5.939288
15125.032,127929,6.074444
15125.087,127930,6.135531
15152.193,127931,6.018334
15152.242,127932,6.186521
15152.275,127933,6.153634
15167.903,127934,6.081296
15167.952,127935,6.137839
15191.023,127936,6.238593
15191.076,127937,6.287708
15191.111,127938,6.280135
15206.031,127939,6.430292
15206.069,127940,6.374687
15233.896,127941,6.589176
15233.956,127942,6.709475
15233.990,127943,6.653148
15246.871,127944,6.783760
15246.917,127945,6.916897
15260.898,127946,6.907521
15260.936,127947,6.993923
15269.832,127948,6.906367
15293.033,127949,6.868359
15293.081,127950,6.791117
15301.908,127951,6.526575
15301.956,127952,6.472195
15310.899,127953,6.155653
15324.909,127954,6.143825
15324.957,127955,6.000808
15348.087,127956,5.832188
15348.125,127957,5.957030
15350.227,127958,5.768504
15372.973,127959,5.846828
15373.021,127960,5.857574
15380.015,127961,5.736410
15380.060,127962,5.805575
15405.078,127963,5.766701
15405.126,127964,5.834279
15405.159,127965,5.762013
15419.844,127966,5.813869
15419.890,127967,5.863777
15445.000,127968,5.816321
15445.050,127969,5.840409
15445.084,127970,5.805863
15459.917,127971,5.732660
15459.959,127972,5.847622
15482.931,127973,5.813364
15482.982,127974,5.871494
15484.795,127975,5.785453
15507.961,127976,5.689243
15508.000,127977,5.842501
15516.735,127978,5.879860
15516.866,127979,5.929912
15529.005,127980,5.972031
15541.975,127981,6.055116
15542.036,127982,6.272346
15555.893,127983,6.186088
15555.941,127984,6.114760
15564.889,127985,5.808027
15588.888,127986,5.672871
15588.934,127987,5.591446
15596.162,127988,5.448789
15596.204,127989,5.499563
15622.762,127990,5.503674
15622.817,127991,5.310748
15622.855,127992,5.515574
15634.819,127993,5.541033
15634.858,127994,5.397222
15659.935,127995,5.302599
15659.982,127996,5.019088
15660.016,127997,3.184963
15691.859,127998,3.536340
15691.915,127999,6.270182
15691.951,128000,9.537292
15691.985,128001,10.388616
15699.880,128002,6.359252
15723.941,128003,4.547629
15723.989,128004,5.610702
15729.776,128005,5.335847
15729.814,128006,5.488167
15742.839,128007,5.426503
15757.084,128008,5.077651
15757.135,128009,5.471435
15770.856,128010,5.445832
15770.904,128011,5.418931
15779.819,128012,5.508362
15803.916,128013,5.347675
15803.969,128014,5.503385
15811.836,128015,5.567357
15811.872,128016,5.450015
15835.970,128017,5.487590
15836.017,128018,5.589931
15836.051,128019,5.576516
15851.024,128020,5.757037
15851.063,128021,5.709076
15874.908,128022,5.861469
15874.961,128023,5.908997
15874.996,128024,6.132863
15891.016,128025,6.184646
15891.068,128026,6.184935
15913.135,128027,6.315619
15913.187,128028,6.255542
15915.225,128029,6.228280
15937.511,128030,6.158322
15937.634,128031,6.073218
15946.329,128032,5.890101
15946.449,128033,5.745642
15954.925,128034,5.639479
15977.899,128035,5.498986
15977.949,128036,5.322288
15985.661,128037,5.386692
15985.750,128038,5.145229
15999.062,128039,5.098350
16011.922,128040,5.149629
16011.974,128041,5.075632
16025.888,128042,5.193911
16025.938,128043,4.894606
16034.869,128044,4.943144
16053.010,128045,5.159076
16053.063,128046,5.077579
16068.865,128047,5.067121
16068.915,128048,5.135276
16090.289,128049,5.101956
16090.414,128050,4.972498
16090.483,128051,5.038273
16104.887,128052,5.175737
16104.937,128053,4.965791
16130.917,128054,4.997163
16154.021,128055,5.085296
16154.081,128056,4.843039
16154.116,128057,5.117030
16154.150,128058,5.154389
16159.901,128059,5.262427
16159.942,128060,5.578103
16182.912,128061,5.436096
16184.801,128062,5.632699
16184.837,128063,5.765691
16209.015,128064,5.737420
16209.067,128065,5.752061
16210.925,128066,5.412296
16224.880,128067,5.476844
16224.930,128068,5.264013
16247.972,128069,4.991177
16248.025,128070,4.688988
16249.867,128071,3.892621
16274.252,128072,4.972786
16274.303,128073,3.819778
16279.940,128074,4.343309
16280.029,128075,4.710408
16293.897,128076,4.183271
16306.832,128077,3.196719
16306.873,128078,2.269163
16322.043,128079,2.835967
16322.094,128080,6.333000
16335.853,128081,9.759210
16335.897,128082,9.843304
16347.857,128083,5.112919
16361.902,128084,4.586719
16361.959,128085,5.475041
16376.854,128086,5.363541
16376.901,128087,5.426143
16384.882,128088,5.329572
16407.934,128089,5.229107
16407.983,128090,5.334476
16414.837,128091,5.238194
16414.880,128092,5.408762
16428.187,128093,5.397655
16442.913,128094,5.384673
16442.962,128095,5.380201
16455.945,128096,5.224779
16455.999,128097,5.531224
16464.970,128098,5.447419
16481.884,128099,5.389433
16481.933,128100,5.557260
16495.891,128101,5.534109
16495.942,128102,5.726241
16505.860,128103,5.854762
16528.983,128104,5.877192
16529.049,128105,6.081728
16537.915,128106,6.043792
16537.964,128107,6.179165
16560.888,128108,6.168924
16560.930,128109,6.182555
16560.964,128110,6.265999
16576.960,128111,6.060453
16590.881,128112,6.061823
16590.932,128113,5.779683
16590.965,128114,5.614525
16600.952,128115,5.552500
16622.952,128116,5.316013
16622.998,128117,5.212735
16629.969,128118,4.900376
16630.017,128119,4.914945
16642.883,128120,3.920964
16656.814,128121,3.955655
16656.856,128122,4.431225
16670.868,128123,3.417267
16670.917,128124,4.150023
16679.888,128125,4.031238
16702.982,128126,4.294915
16703.035,128127,4.862007
16710.910,128128,3.575286
16710.958,128129,3.547302
16723.854,128130,3.676689
16738.701,128131,3.711595
16738.799,128132,4.017247
16750.914,128133,3.754868
16750.964,128134,3.713687
16774.884,128135,3.446044
16774.934,128136,3.308147
16774.969,128137,3.457655
16791.203,128138,3.578964
16791.310,128139,3.408757
16816.351,128140,4.802435
16816.408,128141,4.184713
16816.448,128142,5.067698
16829.885,128143,5.331519
16829.935,128144,5.313705
16852.969,128145,5.326543
16853.020,128146,5.347675
16854.902,128147,4.466204
16879.314,128148,3.228525
16879.363,128149,2.499664
16884.893,128150,2.473988
16884.943,128151,2.371648
16897.900,128152,2.300608
16911.914,128153,2.368619
16911.961,128154,2.166750
16924.826,128155,2.303276
16924.872,128156,2.247166
16937.928,128157,2.197979
16952.933,128158,2.100759
16952.982,128159,1.557683
16965.882,128160,1.719380
16965.929,128161,5.048947
16989.922,128162,8.678612
16989.970,128163,9.823543
16990.005,128164,6.331125
17005.896,128165,2.276447
17005.944,128166,5.179054
17030.975,128167,5.491774
17031.026,128168,2.439442
17052.888,128169,1.740006
17052.949,128170,2.077536
17052.984,128171,2.823922
17059.846,128172,4.408290
17059.895,128173,3.321994
17074.237,128174,3.728255
17087.074,128175,3.392746
17087.135,128176,3.551918
17102.624,128177,4.523036
17102.761,128178,4.439735
17110.929,128179,4.636195
17132.921,128180,4.770341
17132.974,128181,4.694325
17141.910,128182,4.925763
17141.961,128183,5.010001
17150.919,128184,4.841020
17167.903,128185,5.307936
17167.968,128186,5.324307
17188.305,128187,5.614525
17188.358,128188,5.522569
17188.392,128189,5.412151
17218.436,128190,5.669842
17218.491,128191,5.522353
17221.921,128192,5.397511
17221.971,128193,5.289256
17245.937,128194,5.198743
17245.989,128195,4.915017
17246.030,128196,4.933480
17260.913,128197,5.440711
17261.007,128198,5.228818
17283.578,128199,2.867772
17283.625,128200,1.925215
17283.660,128201,2.301041
17307.961,128202,2.129319
17308.008,128203,2.143022
17318.163,128204,2.273706
17318.213,128205,2.978191
17328.198,128206,5.496101
17341.895,128207,5.153595
17341.946,128208,2.130401
17355.911,128209,1.996255
17355.960,128210,2.044143
17366.864,128211,2.172231
17379.893,128212,2.355709
17379.941,128213,4.344823
17402.960,128214,4.496567
17403.044,128215,5.065535
17405.946,128216,4.399636
17427.924,128217,1.953198
17427.974,128218,1.943389
17435.005,128219,1.829942
17435.086,128220,1.932571
17448.075,128221,1.976854
17462.091,128222,2.918979
17462.138,128223,4.059654
17475.907,128224,4.354848
17475.956,128225,5.416983
17504.086,128226,4.981152
17504.142,128227,2.148864
17504.177,128228,2.286544
17518.986,128229,1.903723
17519.037,128230,2.200864
17531.951,128231,2.899073
17532.000,128232,1.805637
17541.392,128233,1.755873
17555.080,128234,1.692334
17555.131,128235,1.637522
17577.942,128236,1.940144
17577.999,128237,1.547442
17579.973,128238,1.771524
17603.904,128239,1.483326
17603.955,128240,1.084998
17613.935,128241,0.857815
17614.358,128242,0.706071
17621.120,128243,3.249296
17635.129,128244,7.853036
17635.191,128245,9.354464
17657.905,128246,5.052048
17657.955,128247,1.822946
17662.326,128248,1.710220
17676.453,128249,1.459453
17678.250,128250,1.549533
17689.893,128251,1.583286
17689.942,128252,1.505395
17715.028,128253,1.652739
17715.080,128254,1.594321
17715.119,128255,1.534676
17729.864,128256,1.632762
17729.913,128257,1.540446
17753.569,128258,2.421772
17753.623,128259,1.587181
17753.659,128260,1.744694
17777.857,128261,2.768677
17777.907,128262,3.879278
17787.379,128263,2.954679
17787.498,128264,4.457694
17795.973,128265,4.046961
17810.914,128266,4.239742
17810.966,128267,3.704744
17833.995,128268,3.535835
17834.054,128269,4.477671
17834.090,128270,4.492889
17857.931,128271,4.685814
17857.981,128272,4.576334
17864.942,128273,4.929081
17864.991,128274,5.063587
17878.912,128275,3.761071
17891.916,128276,2.577915
17891.969,128277,4.133795
17906.871,128278,1.665577
17906.925,128279,1.562227
17929.911,128280,1.535902
17929.963,128281,1.492269
17947.173,128282,1.369806
17947.256,128283,1.403992
17947.292,128284,1.316220
17968.161,128285,1.511741
17968.211,128286,1.460751
17970.822,128287,1.117020
17992.912,128288,1.392236
17992.962,128289,1.335548
18001.942,128290,1.478998
18001.984,128291,2.296208
18010.917,128292,1.448419
18025.887,128293,1.481522
18025.934,128294,1.424835
18048.271,128295,1.394327
18048.322,128296,1.416397
18048.357,128297,1.671635
18073.298,128298,1.739429
18073.360,128299,1.279726
18080.003,128300,1.313768
18080.054,128301,1.386755
18093.069,128302,1.302228
18108.058,128303,1.371321
18108.108,128304,1.311965
18120.891,128305,1.369518
18120.940,128306,1.468901
18144.970,128307,2.315609
18145.018,128308,2.698359
18145.050,128309,3.485566
18159.957,128310,4.025541
18160.007,128311,4.011261
18174.956,128312,2.774447
18175.016,128313,1.560856
18187.915,128314,1.339371
18202.000,128315,1.217846
18202.049,128316,1.189069
18218.481,128317,1.078795
18219.496,128318,1.167505
18227.844,128319,1.030690
18242.035,128320,1.025497
18242.092,128321,2.003467
18256.920,128322,1.068121
18256.971,128323,1.097042
18267.937,128324,0.742059
18287.883,128325,0.269086
18287.932,128326,0.756989
18296.845,128327,4.823350
18296.880,128328,8.596177
18305.830,128329,7.288323
18321.407,128330,1.182073
18321.491,128331,1.369085
18342.895,128332,1.933653
18342.944,128333,1.421662
18344.827,128334,1.682670
18371.179,128335,1.314849
18372.085,128336,1.629877
18377.252,128337,1.293574
18378.022,128338,1.278716
18424.361,128339,1.264220
18424.463,128340,1.415748
18424.528,128341,1.553933
18424.586,128342,1.435797
18424.639,128343,1.335548
18430.927,128344,1.689521
18430.975,128345,2.022363
18440.037,128346,2.785049
18462.990,128347,2.965930
18463.044,128348,3.388995
18470.013,128349,3.530282
18470.096,128350,3.703301
18482.870,128351,4.082878
18496.874,128352,4.050134
18496.920,128353,4.191565
18510.906,128354,4.294771
18510.954,128355,4.260008
18520.978,128356,4.426970
18543.781,128357,4.279193
18543.865,128358,4.186156
18550.885,128359,3.910940
18550.934,128360,2.946024
18562.951,128361,1.997769
18578.399,128362,1.428080
18578.450,128363,1.358195
18590.925,128364,1.233713
18591.003,128365,1.024560
18615.137,128366,1.041869
18616.719,128367,0.924383
18616.760,128368,0.969459
18629.910,128369,0.982585
18629.960,128370,0.877720
18648.434,128371,0.930441
18648.487,128372,0.858896
18655.875,128373,0.980421
18670.859,128374,1.014030
18670.905,128375,0.881254
18692.927,128376,1.016626
18692.977,128377,0.874980
18695.961,128378,0.973930
18709.941,128379,0.929792
18709.995,128380,0.896544
18732.998,128381,0.944288
18733.060,128382,0.824639
18733.102,128383,0.793771
18758.931,128384,0.887745
18758.981,128385,0.753960
18766.196,128386,0.894380
18766.240,128387,0.714870
18777.847,128388,0.810214
18792.913,128389,0.836683
18792.962,128390,0.989437
18805.937,128391,1.013958
18805.989,128392,0.967944
18833.935,128393,1.183804
18833.986,128394,1.225635
18834.022,128395,1.199527
18884.892,128396,1.136565
18884.959,128397,0.793049
18884.995,128398,0.749921
18885.029,128399,0.632362
18885.063,128400,0.512136
18908.048,128401,0.584041
18908.099,128402,0.529084
18925.909,128403,0.590820
18925.959,128404,0.557067
18925.994,128405,0.475498
18932.812,128406,0.483431
18932.863,128407,0.266850
18957.898,128408,0.034763
18957.948,128409,-1210.158451
18957.983,128410,1.469406
18983.353,128411,6.423297
18983.464,128412,8.099547
19007.922,128413,4.291598
19007.972,128414,0.354766
19009.816,128415,0.963833
19036.141,128416,0.812667
19036.211,128417,0.714581
19058.931,128418,0.789588
19058.983,128419,0.718404
19059.019,128420,0.650176
19085.041,128421,0.747901
19085.126,128422,0.562477
19085.190,128423,0.831779
19085.253,128424,0.782952
19111.922,128425,0.780645
19111.972,128426,0.891856
19112.008,128427,0.809998
19136.952,128428,0.937221
19137.009,128429,0.936067
19168.116,128430,0.944000
19168.357,128431,1.191810
19168.396,128432,1.356319
19174.651,128433,1.766836
19174.720,128434,1.890957
19195.940,128435,2.607918
19195.990,128436,3.666015
19196.024,128437,3.835284
19223.553,128438,3.802541
19224.467,128439,3.861464
19255.962,128440,3.740877
19256.010,128441,3.908415
19256.045,128442,3.854324
19281.878,128443,2.452063
19281.934,128444,1.463492
19281.969,128445,1.039561
19282.002,128446,1.006818
19308.092,128447,0.809060
19334.021,128448,0.778625
19334.070,128449,0.823196
19334.105,128450,0.710542
19334.140,128451,0.770836
19359.972,128452,0.726842
19371.859,128453,0.713139
19371.952,128454,0.805310
19372.019,128455,0.698065
19372.084,128456,0.807690
19396.107,128457,0.748695
19396.154,128458,0.744944
19396.186,128459,0.875917
19421.987,128460,0.775668
19422.040,128461,0.852766
19447.108,128462,0.851973
19447.155,128463,0.757421
19447.187,128464,0.903179
19466.992,128465,0.818292
19467.876,128466,0.905343
19487.923,128467,0.814109
19487.971,128468,0.784972
19514.216,128469,1.020665
19514.266,128470,0.981071
19514.304,128471,1.800877
19541.063,128472,3.415752
19541.111,128473,3.202489
19558.012,128474,2.900299
19560.978,128475,1.379182
19561.017,128476,1.521478
19585.014,128477,0.999101
19585.070,128478,0.833510
19585.106,128479,0.814902
19609.422,128480,0.608923
19609.473,128481,0.656235
19642.026,128482,0.582671
19642.074,128483,0.546249
19643.954,128484,0.669000
19643.993,128485,0.570410
19644.025,128486,0.616351
19648.206,128487,0.459848
19648.255,128488,0.006202
19673.964,128489,-1210.243771
19674.021,128490,1.315787
19674.057,128491,6.020497
19700.026,128492,8.637935
19700.075,128493,5.429749
19728.567,128494,0.226390
19728.657,128495,0.816633
19730.057,128496,0.824855
19740.895,128497,0.895751
19740.943,128498,0.801993
19769.258,128499,0.855290
19769.307,128500,0.763407
19790.033,128501,1.704883
19790.080,128502,1.607014
19790.114,128503,0.775019
19816.044,128504,0.904694
19817.714,128505,0.761893
19842.165,128506,0.958424
19842.410,128507,0.991240
19842.549,128508,0.928277
19867.243,128509,1.246550
19891.922,128510,1.627425
19892.072,128511,2.414344
19892.108,128512,2.749060
19892.143,128513,2.857026
19917.906,128514,3.656639
19917.984,128515,3.633343
19929.843,128516,3.834491
19929.884,128517,3.828505
19929.919,128518,3.943106
19935.860,128519,4.047610
19935.894,128520,3.904881
19935.927,128521,3.841414
19935.960,128522,3.800161
19962.010,128523,3.113563
19987.909,128524,1.628723
19987.958,128525,1.040715
19987.994,128526,1.060260
19988.028,128527,1.029176
20013.019,128528,0.767951
20037.900,128529,0.803723
20037.947,128530,0.684867
20039.863,128531,0.759657
20039.901,128532,1.057447
20046.073,128533,0.627675
20050.888,128534,0.737660
20050.937,128535,0.649239
20050.972,128536,0.690276
20051.005,128537,0.755186
20076.941,128538,0.664817
20076.995,128539,0.788578
20077.029,128540,0.699652
20103.122,128541,0.724029
20103.224,128542,0.783746
20126.924,128543,0.630920
20126.975,128544,0.756772
20127.011,128545,0.678953
20156.137,128546,0.652268
20156.186,128547,0.701527
20169.961,128548,0.578848
20170.010,128549,0.692945
20170.045,128550,0.737372
20196.068,128551,1.060693
20196.117,128552,0.894741
20196.149,128553,1.236309
20196.180,128554,2.659197
20222.001,128555,2.162783
20222.117,128556,1.743612
20222.234,128557,1.083772
20249.075,128558,0.741122
20249.126,128559,0.631353
20249.160,128560,0.496702
20272.887,128561,0.800766
20272.935,128562,0.704628
20274.823,128563,0.372220
20274.858,128564,0.489057
20280.905,128565,0.258700
20280.956,128566,0.339837
20307.027,128567,0.472613
20307.067,128568,0.166529
20307.098,128569,-1210.172803
20332.108,128570,-1210.331110
20332.180,128571,2.444995
20332.217,128572,7.015776
20358.142,128573,7.841713
20358.191,128574,3.101446
20359.927,128575,0.153186
20359.967,128576,0.694315
20386.877,128577,0.710254
20386.926,128578,0.655081
20386.962,128579,0.623708
20412.949,128580,0.532402
20412.996,128581,0.662870
20418.785,128582,0.689050
20440.021,128583,0.610437
20440.059,128584,0.709605
20467.230,128585,0.636906
20468.148,128586,0.712057
20468.184,128587,0.811801
20496.044,128588,0.689483
20496.090,128589,0.972127
20496.122,128590,1.222462
20496.153,128591,2.416724
20502.941,128592,3.321489
20505.013,128593,1.701782
20505.051,128594,3.106351
20530.006,128595,3.351492
20530.055,128596,3.530209
20530.089,128597,3.649354
20530.121,128598,3.753426
20530.153,128599,3.890313
20556.075,128600,3.766408
20556.123,128601,3.818335
20556.156,128602,3.781986
20556.188,128603,3.158495
20582.907,128604,2.188891
20608.004,128605,1.200825
20608.057,128606,0.988355
20608.092,128607,0.875701
20608.127,128608,0.628107
20615.891,128609,0.705205
20615.934,128610,0.556851
20615.973,128611,0.544951
20642.623,128612,0.646643
20642.673,128613,0.439293
20667.429,128614,0.625871
20667.482,128615,0.547620
20667.522,128616,0.610005
20675.808,128617,0.638926
20675.849,128618,0.559015
20704.930,128619,0.655802
20704.981,128620,0.571636
20705.016,128621,1.623169
20717.130,128622,0.657821
20717.619,128623,0.468141
20744.309,128624,0.592696
20744.370,128625,0.630920
20744.406,128626,0.516463
20744.440,128627,0.581589
20744.473,128628,0.491076
20768.958,128629,0.560962
20769.009,128630,0.585916
20769.045,128631,0.608923
20797.033,128632,0.854713
20797.088,128633,0.781149
20807.974,128634,0.968233
20808.029,128635,1.921176
20834.363,128636,1.565328
20860.000,128637,1.351776
20860.052,128638,0.795069
20884.922,128639,0.632579
20884.973,128640,0.496846
20897.888,128641,0.398833
20900.839,128642,0.403376
20900.875,128643,0.314811
20904.840,128644,0.342506
20904.873,128645,0.285530
20904.905,128646,0.271754
20930.887,128647,0.351377
20930.936,128648,0.256969
20930.971,128649,0.027911
20931.005,128650,-1210.347194
20956.922,128651,-1210.350800
20983.037,128652,3.497538
20983.127,128653,7.044552
20983.192,128654,7.640637
20983.234,128655,2.384774
21012.154,128656,0.056543
21012.209,128657,0.680900
21020.877,128658,0.547620
21020.935,128659,0.617001
21020.971,128660,0.591109
21046.105,128661,0.490788
21046.200,128662,0.636185
21046.263,128663,0.535936
21071.891,128664,0.559880
21071.942,128665,0.634959
21096.919,128666,0.543364
21096.971,128667,0.684290
21097.004,128668,0.693305
21128.886,128669,0.786631
21128.938,128670,0.889981
21128.973,128671,0.926258
21129.008,128672,1.761859
21157.940,128673,2.190622
21159.871,128674,3.211576
21159.937,128675,3.377672
21184.895,128676,3.506049
21184.946,128677,3.633416
21209.899,128678,3.720034
21209.950,128679,3.806652
21209.985,128680,3.842713
21236.849,128681,3.836005
21236.904,128682,3.938129
21236.940,128683,3.777082
21236.976,128684,3.677049
21237.010,128685,2.800699
21239.796,128686,1.191017
21239.830,128687,1.134329
21265.135,128688,0.926258
21265.216,128689,0.858175
21290.896,128690,0.780933
21290.946,128691,0.650826
21290.980,128692,0.771990
21323.855,128693,0.665755
21323.914,128694,0.734775
21325.783,128695,0.723452
21350.940,128696,0.628468
21350.990,128697,0.829687
21351.024,128698,0.689339
21351.059,128699,0.937870
21376.880,128700,0.849016
21376.928,128701,0.764345
21376.963,128702,0.915873
21402.924,128703,0.797737
21402.973,128704,0.888394
21406.939,128705,0.897193
21420.897,128706,0.855651
21420.946,128707,1.005952
21420.982,128708,0.795646
21421.016,128709,0.938375
21427.925,128710,0.899140
21427.962,128711,2.221635
21427.997,128712,3.391303
21455.912,128713,2.653499
21455.998,128714,2.918690
21479.906,128715,3.060049
21479.959,128716,3.655413
21479.995,128717,3.814224
21505.932,128718,3.664428
21505.982,128719,2.365878
21532.920,128720,1.476979
21532.974,128721,1.004871
21533.010,128722,0.995783
21540.958,128723,0.885077
21541.007,128724,0.841227
21568.489,128725,0.902674
21568.537,128726,0.721865
21568.573,128727,0.926114
21591.165,128728,0.909526
21591.219,128729,0.811801
21591.258,128730,0.784251
21591.295,128731,0.314306
21621.940,128732,0.226173
21621.993,128733,3.362238
21622.028,128734,6.985989
21627.888,128735,8.743161
21627.939,128736,4.575901
21629.845,128737,0.682415
21679.891,128738,2.997952
21679.948,128739,2.714081
21679.984,128740,3.078367
21680.018,128741,2.549500
21704.952,128742,3.498043
21705.002,128743,2.383187
21730.967,128744,2.338039
21736.800,128745,2.992615
21736.840,128746,3.336058
21736.874,128747,3.547447
21736.908,128748,3.550043
21762.906,128749,3.540234
21765.224,128750,3.750541
21765.490,128751,3.478354
21789.951,128752,3.914978
21790.039,128753,3.875672
21815.958,128754,3.941159
21816.530,128755,4.141873
21816.574,128756,4.199354
21836.944,128757,4.423869
21837.029,128758,4.516112
21862.806,128759,4.571069
21862.858,128760,4.743728
21862.893,128761,4.666558
21887.889,128762,4.786496
21887.940,128763,4.699373
21912.945,128764,4.727429
21916.880,128765,4.626026
21916.936,128766,4.429927
21946.908,128767,4.229861
21946.959,128768,3.562664
21951.834,128769,2.580007
21951.869,128770,2.360757
21951.903,128771,2.632151
21954.848,128772,3.747368
21954.882,128773,1.635791
21979.866,128774,1.593455
21979.916,128775,1.862325
22004.974,128776,1.657788
22005.036,128777,2.012770
22005.073,128778,1.696156
22036.913,128779,2.102706
22036.965,128780,2.395015
22041.857,128781,2.182112
22041.900,128782,2.764783
22041.935,128783,2.957924
22069.326,128784,3.086012
22069.375,128785,3.471430
22069.410,128786,2.594143
22096.955,128787,3.054062
22097.073,128788,2.707374
22120.880,128789,2.786708
22120.934,128790,3.169024
22120.969,128791,2.595585
22143.267,128792,3.823889
22143.320,128793,4.172164
22193.012,128794,4.226977
22193.089,128795,4.448678
22193.124,128796,4.587945
22195.970,128797,4.685309
22196.011,128798,4.527435
22219.992,128799,4.486903
22220.088,128800,4.232169
22240.928,128801,3.704960
22240.979,128802,3.715995
22241.014,128803,1.757820
22242.810,128804,1.710653
22242.846,128805,1.850353
22267.961,128806,1.783496
22268.009,128807,1.811335
22270.846,128808,1.774481
22294.926,128809,1.910141
22294.982,128810,1.694209
22320.977,128811,1.230179
22321.038,128812,1.020233
22321.075,128813,4.131560
22343.014,128814,7.540893
22343.076,128815,9.784669
22345.362,128816,6.101057
22345.404,128817,1.648773
22369.890,128818,4.241834
22369.940,128819,4.190483
22369.976,128820,4.409444
22396.858,128821,4.352396
22396.942,128822,4.166899
22396.981,128823,3.953780
22422.914,128824,4.153268
22422.965,128825,4.253229
22422.999,128826,4.277029
22423.032,128827,4.366676
22451.410,128828,4.473056
22451.521,128829,4.475724
22451.588,128830,4.551740
22455.909,128831,4.547124
22455.962,128832,4.654081
22480.905,128833,4.664899
22480.955,128834,4.697426
22480.990,128835,4.900232
22507.802,128836,4.898645
22507.904,128837,5.060198
22507.971,128838,5.232929
22508.039,128839,5.161601
22541.068,128840,5.437322
22541.130,128841,5.456290
22541.165,128842,5.489033
22547.904,128843,5.587912
22547.956,128844,5.438187
22574.490,128845,5.489321
22598.023,128846,5.303897
22598.075,128847,5.062866
22598.111,128848,5.037191
22598.146,128849,4.579363
22627.872,128850,4.655523
22634.794,128851,3.588267
22634.843,128852,3.181141
22634.877,128853,2.873758
22634.911,128854,2.652345
22659.920,128855,3.169818
22659.970,128856,3.051466
22660.005,128857,3.429672
22684.965,128858,3.464651
22685.019,128859,3.290838
22710.907,128860,4.095643
22710.958,128861,4.218971
22710.993,128862,4.640017
22729.862,128863,3.751623
22729.914,128864,3.380846
22734.816,128865,4.542148
22734.855,128866,4.424518
22734.892,128867,4.331192
22760.919,128868,3.736910
22760.971,128869,3.598797
22761.005,128870,3.805281
22761.038,128871,3.341684
22786.880,128872,3.149263
22786.930,128873,4.466565
22786.964,128874,4.710119
22812.935,128875,4.891649
22813.237,128876,4.835827
22814.974,128877,5.030051
22843.004,128878,5.261922
22843.068,128879,5.089551
22845.940,128880,4.993629
22846.032,128881,4.509982
22870.269,128882,3.095893
22870.325,128883,3.108442
22870.380,128884,2.419392
22895.886,128885,2.699729
22895.937,128886,2.409079
22895.973,128887,2.474926
22896.006,128888,2.614553
22896.040,128889,2.264331
22931.005,128890,2.989297
22931.098,128891,3.472584
22931.163,128892,2.127732
22931.227,128893,1.509001
22936.854,128894,4.462959
22936.899,128895,7.871282
22936.933,128896,10.232256
22965.146,128897,6.926922
22965.498,128898,2.040826
22965.581,128899,4.664394
22990.012,128900,4.900376
22990.064,128901,4.857969
23018.219,128902,4.724616
23018.267,128903,4.716755
23018.302,128904,4.608428
23025.902,128905,4.754546
23025.950,128906,4.715240
23025.985,128907,4.725337
23051.955,128908,4.843400
23052.018,128909,4.764571
23052.054,128910,4.860854
23052.088,128911,4.780654
23077.904,128912,4.916820
23077.967,128913,5.080464
23103.167,128914,5.001707
23103.286,128915,5.223625
23103.359,128916,5.181578
23131.902,128917,5.227231
23131.952,128918,5.395419
23139.417,128919,5.467036
23139.469,128920,5.590869
23139.504,128921,5.729559
23140.810,128922,5.700277
23140.846,128923,5.865580
23167.196,128924,5.773409
23167.255,128925,5.790573
23167.295,128926,5.768576
23177.700,128927,5.517016
23177.759,128928,5.497904
23177.794,128929,5.132464
23177.829,128930,5.086522
23201.892,128931,4.879317
23201.941,128932,4.736083
23201.976,128933,4.552534
23227.887,128934,3.471430
23227.935,128935,3.629809
23227.970,128936,3.700777
23250.904,128937,3.371398
23250.955,128938,3.638320
23250.990,128939,3.356757
23251.024,128940,3.730491
23258.903,128941,3.731140
23258.953,128942,3.685487
23282.902,128943,4.094201
23307.975,128944,3.733953
23308.025,128945,3.897597
23309.872,128946,3.479364
23309.906,128947,3.532445
23336.889,128948,4.075521
23363.939,128949,3.310311
23363.991,128950,3.524007
23364.035,128951,3.605577
23364.073,128952,4.504789
23389.916,128953,2.915156
23415.238,128954,2.347198
23416.930,128955,3.103754
23416.971,128956,4.442187
23417.242,128957,4.194450
23441.907,128958,4.749570
23451.003,128959,4.827317
23451.145,128960,4.974301
23451.228,128961,4.791473
23451.298,128962,4.582536
23458.929,128963,2.963045
23458.978,128964,2.231227
23484.972,128965,2.096864
23485.052,128966,2.014213
23485.088,128967,1.932499
23485.123,128968,1.997985
23510.912,128969,1.810037
23510.964,128970,1.815157
23510.997,128971,1.849631
23511.029,128972,1.794242
23537.199,128973,1.677261
23537.252,128974,1.229169
23537.287,128975,1.076343
23567.944,128976,4.009963
23567.994,128977,7.504039
23571.968,128978,9.647422
23572.011,128979,5.851588
23572.046,128980,1.446832
23596.919,128981,3.508212
23596.973,128982,3.867234
23597.008,128983,2.245363
23597.043,128984,1.943678
23623.007,128985,1.831024
23648.952,128986,1.856771
23649.003,128987,1.814652
23649.037,128988,1.981181
23649.070,128989,2.350949
23678.963,128990,2.471464
23682.809,128991,2.316114
23682.848,128992,2.314167
23685.893,128993,2.760600
23685.930,128994,2.931384
23711.056,128995,3.922046
23711.105,128996,3.900410
23711.138,128997,4.077757
23736.283,128998,4.395164
23736.334,128999,4.476878
23762.028,129000,4.678746
23762.076,129001,4.646724
23762.110,129002,4.807339
23788.016,129003,4.975743
23788.097,129004,4.745531
23792.963,129005,4.863594
23793.010,129006,4.942423
23794.793,129007,4.766735
23820.890,129008,4.734569
23820.941,129009,4.491086
23820.976,129010,2.834741
23821.010,129011,3.717798
23845.929,129012,2.529306
23845.978,129013,1.777438
23846.011,129014,1.709932
23872.839,129015,1.539653
23872.878,129016,1.663702
23891.974,129017,1.516069
23892.013,129018,1.521334
23892.044,129019,1.555591
23918.179,129020,1.501284
23918.960,129021,1.565833
23946.990,129022,1.471281
23947.112,129023,1.576074
23947.156,129024,1.533306
23979.063,129025,1.480585
23979.110,129026,1.621006
23984.980,129027,1.530349
23985.014,129028,1.611846
23985.048,129029,1.608384
23986.873,129030,1.467819
23986.907,129031,1.612351
24012.179,129032,1.479431
24012.226,129033,1.609683
24012.258,129034,1.508352
24037.032,129035,1.487869
24037.079,129036,2.509328
24067.347,129037,2.559452
24067.621,129038,3.027594
24067.657,129039,4.025397
24073.950,129040,4.143676
24073.997,129041,4.014939
24074.031,129042,4.096436
24074.064,129043,2.281712
24101.066,129044,1.638387
24101.119,129045,1.380119
24101.155,129046,1.371321
24125.976,129047,1.209119
24126.026,129048,1.293646
24152.107,129049,1.299343
24152.179,129050,1.198950
24152.214,129051,1.303598
24178.099,129052,1.197508
24178.145,129053,1.179044
24185.158,129054,0.942918
24185.205,129055,0.468791
24185.237,129056,1.739429
24211.245,129057,5.819061
24211.292,129058,9.216856
24211.324,129059,7.044119
24211.354,129060,1.050452
24211.385,129061,2.949847
24237.058,129062,1.607519
24237.108,129063,2.069314
24237.142,129064,1.768494
24237.174,129065,1.585666
24264.055,129066,1.886990
24264.100,129067,1.480801
24264.132,129068,1.930912
24284.047,129069,1.664495
24284.096,129070,2.253152
24284.130,129071,3.298338
24291.013,129072,3.788116
24291.053,129073,3.193618
24315.242,129074,2.733338
24315.292,129075,3.543480
24340.095,129076,3.459458
24340.141,129077,3.830812
24340.173,129078,4.252435
24377.861,129079,4.195027
24377.944,129080,4.313450
24377.980,129081,4.559457
24403.024,129082,4.429061
24403.070,129083,4.657110
24429.437,129084,4.660788
24429.506,129085,4.742646
24429.541,129086,4.828759
24429.575,129087,4.600711
24429.608,129088,4.547918
24455.261,129089,4.486687
24455.308,129090,3.268264
24486.017,129091,2.522021
24486.066,129092,1.684184
24486.099,129093,1.635286
24512.058,129094,1.496884
24512.090,129095,1.424619
24537.013,129096,1.488807
24537.061,129097,1.256936
24537.093,129098,1.401035
24564.029,129099,1.378028
24564.075,129100,1.395193
24581.974,129101,2.737737
24582.024,129102,1.621006
24582.058,129103,1.511597
24609.121,129104,1.444813
24609.168,129105,1.368580
24609.200,129106,1.485417
24609.231,129107,1.425051
24635.949,129108,1.515203
24659.981,129109,1.514482
24660.029,129110,1.504097
24660.062,129111,1.539653
24660.094,129112,1.476546
24687.989,129113,1.692839
24688.036,129114,1.758830
24688.069,129115,1.411276
24690.862,129116,2.945880
24690.897,129117,3.700344
24697.985,129118,3.921902
24698.032,129119,4.066650
24698.069,129120,4.221135
24721.908,129121,4.377062
24722.176,129122,4.302272
24747.432,129123,4.036215
24747.692,129124,2.467497
24747.734,129125,1.698320
24773.694,129126,1.550904
24774.739,129127,1.446183
24797.941,129128,1.451520
24797.992,129129,1.509938
24800.826,129130,1.399015
24806.803,129131,1.876749
24806.839,129132,3.405006
24832.303,129133,1.490826
24832.356,129134,1.355959
24832.393,129135,0.830625
24858.001,129136,0.813388
24858.056,129137,4.146705
24858.089,129138,7.828009
24858.121,129139,9.213971
24881.950,129140,4.784116
24905.043,129141,1.560063
24905.077,129142,3.640483
24905.111,129143,3.361301
24905.142,129144,3.546725
24911.298,129145,2.770408
24911.346,129146,3.502082
24911.380,129147,2.407131
24936.104,129148,2.714225
24936.152,129149,2.934052
24961.079,129150,2.907583
24961.119,129151,3.697243
24961.152,129152,3.292785
24994.049,129153,3.660966
24994.096,129154,3.818912
24997.947,129155,3.927023
24997.979,129156,4.139277
24999.989,129157,3.994817
25025.184,129158,4.361628
25025.346,129159,4.482359
25025.409,129160,4.472695
25025.467,129161,4.785054
25051.157,129162,4.770557
25077.060,129163,4.903405
25077.106,129164,5.031782
25077.138,129165,4.921796
25077.170,129166,5.104913
25105.133,129167,5.026733
25117.639,129168,5.009857
25117.686,129169,4.918623
25117.724,129170,4.596384
25117.758,129171,4.610087
25141.998,129172,3.339664
25142.038,129173,2.819884
25142.070,129174,2.035921
25168.794,129175,1.819484
25168.846,129176,1.853093
25168.881,129177,1.746497
25168.914,129178,1.734092
25193.134,129179,1.764167
25194.909,129180,1.629877
25194.946,129181,2.005270
25223.105,129182,1.835351
25223.158,129183,2.021281
25223.193,129184,2.315176
25252.985,129185,2.167471
25253.035,129186,2.717399
25254.910,129187,2.246300
25254.951,129188,2.083522
25279.962,129189,2.603374
25305.104,129190,2.494038
25305.151,129191,3.483258
25305.184,129192,3.864205
25313.154,129193,2.564861
25313.650,129194,2.311715
25317.964,129195,2.131266
25318.005,129196,2.391770
25341.905,129197,2.047461
25341.953,129198,2.327076
25367.862,129199,3.479364
25367.910,129200,3.994384
25367.966,129201,4.266716
25391.925,129202,4.240463
25391.976,129203,4.516905
25424.924,129204,4.501111
25424.974,129205,4.366171
25425.010,129206,4.263542
25429.845,129207,2.430932
25429.881,129208,1.839679
25455.949,129209,1.834846
25456.037,129210,1.667380
25479.848,129211,1.645960
25479.893,129212,1.639613
25479.927,129213,1.521694
25506.385,129214,1.573189
25506.526,129215,1.548523
25522.916,129216,1.516429
25524.801,129217,1.459742
25524.837,129218,1.024848
25527.827,129219,0.651403
25527.861,129220,2.090662
25552.997,129221,6.120530
25579.058,129222,9.497048
25579.146,129223,7.125473
25579.212,129224,1.059899
25579.276,129225,2.489927
25604.948,129226,3.124742
25620.889,129227,3.859084
25620.938,129228,2.480479
25620.973,129229,2.506443
25621.006,129230,2.284741
25646.971,129231,2.678669
25647.022,129232,2.518559
25647.056,129233,2.685160
25671.979,129234,2.812239
25672.033,129235,3.256364
25681.386,129236,3.630242
25681.442,129237,3.840982
25681.496,129238,3.444745
25706.933,129239,4.212696
25706.983,129240,4.046961
25732.463,129241,4.242627
25733.109,129242,4.477599
25733.150,129243,4.377350
25758.216,129244,4.675717
25758.265,129245,4.673770
25760.321,129246,4.851189
25760.357,129247,4.949852
25784.884,129248,4.927638
25784.932,129249,5.052913
25810.941,129250,4.840155
25811.006,129251,5.029330
25811.042,129252,4.961824
25821.853,129253,4.754474
25827.873,129254,4.572583
25827.917,129255,3.180492
25829.811,129256,2.373883
25829.848,129257,1.872854
25854.893,129258,1.731929
25854.946,129259,1.780106
25854.981,129260,1.638820
25880.905,129261,1.602254
25880.953,129262,1.628362
25912.040,129263,1.607303
25912.090,129264,1.666947
25912.125,129265,1.601100
25921.000,129266,1.606726
25921.063,129267,1.897015
25921.100,129268,1.652523
25921.135,129269,1.815157
25945.878,129270,1.670337
25971.858,129271,1.866436
25971.908,129272,1.734814
25971.943,129273,1.704450
25971.977,129274,2.002529
25997.952,129275,1.629660
25998.037,129276,1.730775
25998.098,129277,2.032676
26005.873,129278,1.743396
26005.917,129279,1.661177
26005.950,129280,1.428225
26031.890,129281,2.844116
26031.941,129282,3.458016
26031.977,129283,1.614298
26032.011,129284,1.668245
26058.948,129285,1.426999
26059.000,129286,1.445029
26059.034,129287,1.686636
26083.914,129288,1.471137
26083.965,129289,2.153552
26101.897,129290,2.679607
26101.947,129291,3.648922
26101.982,129292,3.811051
26104.855,129293,4.180242
26104.892,129294,4.201518
26110.933,129295,3.911156
26110.977,129296,3.163399
26135.909,129297,1.565472
26161.000,129298,1.366272
26161.050,129299,1.367138
26161.084,129300,1.186473
26161.116,129301,1.245036
26190.187,129302,1.186112
26190.342,129303,1.118390
26190.411,129304,1.167938
26196.008,129305,1.087089
26196.062,129306,1.167577
26196.097,129307,1.130002
26222.903,129308,0.564784
26222.954,129309,0.299016
26222.989,129310,2.568972
26223.023,129311,6.736665
26249.091,129312,9.010876
26272.978,129313,5.414387
26273.027,129314,0.792040
26275.843,129315,1.902785
26275.878,129316,1.475104
26296.969,129317,1.660601
26297.019,129318,1.267538
26297.055,129319,1.389495
26322.123,129320,1.266672
26322.182,129321,1.275255
26322.217,129322,1.704018
26322.251,129323,1.446039
26348.021,129324,1.880355
26348.072,129325,1.635069
26348.108,129326,2.042773
26375.101,129327,2.610514
26375.154,129328,2.408790
26375.189,129329,3.068775
26403.963,129330,2.851256
26404.013,129331,3.696883
26404.053,129332,3.811123
26404.087,129333,3.947722
26407.862,129334,4.172525
26412.905,129335,4.252075
26412.944,129336,4.276596
26436.881,129337,4.501111
26436.933,129338,4.423941
26436.967,129339,4.540994
26463.015,129340,4.535297
26463.069,129341,4.442404
26465.231,129342,4.442548
26465.278,129343,3.847473
26491.896,129344,2.301978
26491.947,129345,1.551913
26491.983,129346,1.351343
26495.975,129347,1.287587
26496.022,129348,1.082834
26500.970,129349,1.057519
26501.019,129350,1.017276
26526.887,129351,0.939673
26551.900,129352,1.155244
26551.950,129353,0.924239
26551.983,129354,0.902602
26552.017,129355,0.887168
26578.951,129356,0.906641
26604.013,129357,0.986984
26604.064,129358,0.910752
26604.099,129359,0.963833
26604.132,129360,0.934408
26612.868,129361,0.886303
26637.921,129362,0.967944
26663.865,129363,0.844977
26663.968,129364,0.939961
26664.009,129365,0.910608
26664.049,129366,0.810214
26691.007,129367,0.923662
26691.056,129368,0.723308
26697.875,129369,0.872023
26697.923,129370,0.809349
26697.957,129371,1.496740
26723.906,129372,0.898708
26723.957,129373,0.668423
26723.992,129374,0.748695
26724.026,129375,0.707585
26749.987,129376,0.686814
26750.039,129377,0.747108
26750.074,129378,0.781149
26774.879,129379,1.004799
26774.930,129380,0.981647
26805.950,129381,1.178684
26806.002,129382,2.036210
26806.039,129383,1.481090
26832.069,129384,1.436735
26832.135,129385,0.975229
26832.171,129386,0.785116
26832.207,129387,0.758431
26857.927,129388,0.515165
26859.851,129389,0.647364
26859.895,129390,0.657461
26885.972,129391,0.580435
26886.029,129392,0.490860
26886.065,129393,0.379648
26911.007,129394,0.515886
26911.059,129395,0.345246
26911.095,129396,0.108471
26911.128,129397,-1210.275937
26937.972,129398,0.089142
26938.023,129399,4.289578
26938.057,129400,8.099043
26963.166,129401,7.099220
26963.216,129402,1.056582
26987.983,129403,0.461362
26988.035,129404,0.815623
26988.070,129405,0.794708
27010.985,129406,0.667846
27011.034,129407,0.678665
27011.069,129408,0.674049
27011.101,129409,0.573295
27011.133,129410,0.655586
27018.295,129411,0.570915
27018.342,129412,0.713716
27042.141,129413,0.671020
27042.238,129414,0.707080
27069.894,129415,0.816128
27069.980,129416,0.681189
27070.015,129417,0.930730
27093.613,129418,1.051533
27093.664,129419,1.339227
27109.798,129420,1.927883
27109.850,129421,2.561832
27109.961,129422,3.327908
27116.080,129423,3.182223
27116.161,129424,3.627790
27140.983,129425,3.812782
27171.310,129426,3.794824
27171.371,129427,3.962939
27171.407,129428,3.962867
27171.441,129429,3.927744
27193.942,129430,3.979744
27193.992,129431,3.661038
27194.026,129432,3.683684
27210.018,129433,1.611053
27210.069,129434,1.018213
27216.494,129435,0.925897
27216.541,129436,0.685155
27239.911,129437,0.688185
27264.878,129438,0.594859
27265.366,129439,0.541561
27265.406,129440,0.572718
27265.446,129441,0.417656
27291.894,129442,0.559375
27308.917,129443,0.509467
27308.968,129444,0.547836
27309.002,129445,0.580507
27309.035,129446,0.498577
27312.885,129447,0.672967
27337.946,129448,0.548341
27338.011,129449,0.596806
27362.885,129450,0.670443
27362.936,129451,0.554543
27363.220,129452,0.682054
27389.898,129453,0.635464
27389.951,129454,0.659552
27406.800,129455,0.695036
27406.836,129456,0.581372
27406.869,129457,0.718115
27437.908,129458,0.586782
27437.969,129459,0.629910
27438.003,129460,0.654432
27438.036,129461,1.461833
27462.886,129462,1.494432
27462.934,129463,0.595292
27462.968,129464,0.608202
27487.925,129465,0.888755
27487.975,129466,1.037398
27512.981,129467,1.180343
27513.029,129468,2.358954
27513.063,129469,3.184747
27519.868,129470,2.781226
27519.914,129471,1.930191
27544.907,129472,1.072304
27544.958,129473,0.681117
27544.994,129474,0.668423
27571.904,129475,0.616135
27571.958,129476,0.523531
27595.959,129477,0.616568
27596.009,129478,0.528219
27596.043,129479,0.518843
27620.869,129480,0.539975
27620.919,129481,0.466915
27620.954,129482,0.524541
27620.988,129483,0.165591
27647.003,129484,-1210.268725
27647.055,129485,0.742853
27647.089,129486,4.765076
27673.177,129487,8.282520
27673.225,129488,6.673847
27696.885,129489,0.700229
27696.935,129490,1.214961
27696.969,129491,2.617510
27730.252,129492,2.574309
27730.304,129493,0.891568
27732.875,129494,0.764706
27732.920,129495,0.852261
27735.797,129496,0.911834
27761.993,129497,0.902458
27762.043,129498,0.964338
27785.932,129499,1.718586
27785.983,129500,1.658004
27786.021,129501,1.322206
27812.961,129502,1.352281
27813.041,129503,2.391193
27813.107,129504,2.717904
27813.171,129505,2.714802
27837.940,129506,3.183521
27840.951,129507,3.544273
27841.013,129508,3.640556
27842.883,129509,3.708566
27842.922,129510,3.887789
27847.854,129511,3.968421
27872.905,129512,4.122544
27872.952,129513,4.204402
27872.985,129514,4.159471
27873.019,129515,4.385500
27897.989,129516,4.316191
27898.036,129517,4.310349
27898.069,129518,4.230871
27926.895,129519,3.950679
27926.946,129520,3.955439
27952.522,129521,2.314816
27952.572,129522,3.467969
27952.606,129523,1.270711
27978.901,129524,1.051389
27978.969,129525,1.151710
28002.886,129526,1.030041
28002.938,129527,1.110024
28002.971,129528,0.992177
28025.930,129529,0.972704
28025.983,129530,1.102091
28030.848,129531,1.027445
28030.891,129532,1.175871
28030.925,129533,1.188276
28058.435,129534,1.089325
28058.515,129535,1.347593
28058.551,129536,1.242728
28058.585,129537,1.369445
28082.891,129538,1.923917
28108.177,129539,1.807224
28108.227,129540,1.967117
28108.263,129541,1.561145
28108.297,129542,2.058423
28137.002,129543,1.849559
28142.573,129544,1.802464
28142.626,129545,1.810830
28142.661,129546,1.691252
28142.695,129547,2.507597
28170.361,129548,3.584517
28170.413,129549,3.681665
28170.449,129550,3.815811
28192.974,129551,3.921469
28193.025,129552,4.098456
28193.072,129553,3.996404
28193.111,129554,3.912166
28201.904,129555,2.806830
28201.955,129556,1.712023
28201.991,129557,1.566554
28237.887,129558,1.303887
28237.941,129559,1.320042
28237.976,129560,1.325163
28244.920,129561,1.189574
28244.961,129562,1.362882
28244.994,129563,1.428369
28245.029,129564,1.317951
28270.885,129565,1.490754
28270.934,129566,0.880821
28270.969,129567,0.547980
28297.920,129568,1.702143
28297.985,129569,5.434870
28298.020,129570,9.168390
28325.982,129571,7.653619
28326.033,129572,1.627713
28326.069,129573,3.228957
28326.103,129574,3.775856
28332.836,129575,3.963011
28332.878,129576,3.735828
28332.913,129577,3.553721
28358.068,129578,3.599374
28358.117,129579,2.960521
28385.892,129580,3.367647
28385.945,129581,3.573482
28409.981,129582,4.014795
28430.937,129583,3.811340
28431.020,129584,3.648705
28431.080,129585,3.881442
28431.149,129586,3.816316
28457.455,129587,4.091532
28457.673,129588,4.173246
28457.741,129589,4.223803
28484.030,129590,4.453943
28508.056,129591,4.458703
28508.113,129592,4.658192
28508.147,129593,4.717259
28508.180,129594,4.788083
28534.263,129595,4.956559
28534.316,129596,4.998894
28537.870,129597,5.115659
28562.992,129598,5.095609
28563.045,129599,5.053202
28565.360,129600,5.115227
28565.416,129601,4.884726
28589.923,129602,4.764211
28589.971,129603,4.690502
28590.005,129604,4.430864
28619.505,129605,4.049846
28619.555,129606,2.294694
28636.981,129607,2.264763
28637.031,129608,1.976782
28637.065,129609,1.773759
28662.086,129610,1.963367
28662.133,129611,2.202811
28686.994,129612,4.018473
28687.042,129613,2.790097
28687.076,129614,1.850569
28713.691,129615,2.925253
28713.928,129616,3.080387
28741.954,129617,3.899977
28742.026,129618,3.585887
28742.068,129619,3.927383
28748.080,129620,4.094994
28748.130,129621,3.886707
28748.165,129622,3.631180
28748.200,129623,3.458160
28773.896,129624,3.706691
28800.794,129625,4.096292
28800.845,129626,3.839756
28800.884,129627,3.347093
28800.944,129628,3.444745
28826.993,129629,3.119982
28841.027,129630,3.876826
28841.065,129631,3.129285
28841.098,129632,3.774774
28841.128,129633,4.724399
28847.014,129634,4.563785
28847.052,129635,4.728655
28847.084,129636,4.954612
28850.026,129637,4.910617
28850.065,129638,5.002933
28875.951,129639,4.814047
28876.002,129640,4.549000
28900.144,129641,4.176059
28900.192,129642,4.261162
28900.223,129643,2.437783
28926.041,129644,2.101192
28926.100,129645,2.214855
28926.136,129646,2.170717
28940.988,129647,2.508679
28941.037,129648,2.662370
28941.071,129649,2.230866
28941.103,129650,2.292097
28947.985,129651,1.585161
28973.981,129652,1.199743
28974.032,129653,3.970873
28998.096,129654,7.261278
28998.144,129655,10.179679
29000.051,129656,7.271086
29027.978,129657,1.586099
29028.036,129658,4.385572
29032.914,129659,4.521016
29032.962,129660,4.679035
29034.834,129661,4.510847
29034.870,129662,4.345112
29034.902,129663,4.285684
29059.925,129664,4.459857
29059.963,129665,4.448101
29059.995,129666,4.194666
29060.026,129667,4.424590
29086.092,129668,4.425023
29091.985,129669,4.332923
29092.024,129670,4.344102
29092.057,129671,4.076531
29092.089,129672,4.558520
29099.152,129673,4.682497
29101.137,129674,4.397472
29101.184,129675,4.871095
29118.292,129676,4.760893
29118.359,129677,4.882490
29118.411,129678,4.984470
29122.920,129679,5.053779
29122.966,129680,5.124891
29144.986,129681,5.162538
29145.035,129682,5.229034
29168.951,129683,5.137151
29169.018,129684,5.093085
29169.069,129685,5.193118
29185.049,129686,4.790607
29185.097,129687,4.591840
29185.130,129688,3.119910
29185.161,129689,2.222716
29185.191,129690,2.078185
29190.052,129691,1.874585
29190.089,129692,1.729116
29208.108,129693,1.755657
29208.146,129694,1.630742
29208.178,129695,1.736689
29234.032,129696,1.646465
29234.083,129697,1.564967
29234.118,129698,1.675241
29234.154,129699,1.636584
29251.005,129700,1.698681
29251.044,129701,1.837010
29251.076,129702,2.765360
29255.974,129703,1.685050
29256.012,129704,1.571170
29279.917,129705,1.595403
29280.010,129706,1.616246
29280.078,129707,1.502726
29295.015,129708,1.619491
29295.058,129709,1.443803
29307.984,129710,1.532440
29321.940,129711,1.577733
29321.988,129712,1.434066
29336.003,129713,1.483326
29336.053,129714,1.426782
29360.111,129715,1.461328
29360.150,129716,1.481378
29360.183,129717,1.498038
29374.992,129718,2.287626
29375.047,129719,2.388885
29400.221,129720,3.028964
29400.271,129721,4.195604
29400.304,129722,4.105740
29418.029,129723,3.969502
29418.905,129724,2.789881
29438.096,129725,1.586676
29438.217,129726,1.514482
29438.253,129727,1.275759
29463.249,129728,1.343698
29463.297,129729,1.224193
29471.973,129730,1.200609
29472.018,129731,1.474455
29480.946,129732,1.496452
29495.186,129733,1.182867
29495.225,129734,1.061198
29512.306,129735,0.950635
29512.355,129736,0.671524
29520.948,129737,0.261008
29535.061,129738,2.415858
29535.111,129739,6.542225
29558.149,129740,8.941207
29558.188,129741,5.569809
29561.053,129742,0.516607
29576.303,129743,1.312109
29576.382,129744,1.201114
29598.206,129745,1.341318
29598.255,129746,1.246190
29622.059,129747,1.080454
29622.109,129748,1.209408
29622.143,129749,1.089830
29630.991,129750,1.115649
29631.044,129751,1.166279
29653.083,129752,1.128992
29653.124,129753,1.119472
29656.128,129754,0.937798
29680.001,129755,1.161230
29680.057,129756,1.120770
29685.998,129757,1.539148
29686.040,129758,2.018252
29694.070,129759,1.675890
29718.732,129760,2.773365
29718.802,129761,3.251532
29739.066,129762,3.689093
29739.119,129763,3.775279
29739.152,129764,3.645099
29753.096,129765,3.893775
29753.129,129766,3.983061
29767.948,129767,3.851151
29767.997,129768,3.986523
29776.248,129769,3.818263
29789.964,129770,3.518382
29790.012,129771,2.196825
29814.107,129772,1.251455
29814.157,129773,1.136060
29836.913,129774,0.859473
29836.962,129775,0.782592
29836.997,129776,0.684579
29845.957,129777,0.531609
29845.991,129778,0.604956
29869.855,129779,0.437850
29869.900,129780,0.534277
29869.936,129781,0.584041
29884.883,129782,0.496269
29884.933,129783,0.602288
29907.810,129784,0.490788
29907.843,129785,0.559952
29907.874,129786,0.627098
29933.924,129787,0.516102
29933.974,129788,0.621328
29939.803,129789,0.525550
29939.839,129790,0.584546
29948.829,129791,1.273956
29973.012,129792,0.493240
29973.062,129793,0.620102
29980.307,129794,0.592407
29980.360,129795,0.568607
29993.120,129796,0.635536
30007.147,129797,0.569833
30007.193,129798,0.663807
30021.905,129799,0.603009
30021.953,129800,0.528363
30044.910,129801,0.703402
30044.959,129802,0.757566
30044.994,129803,0.871374
30061.033,129804,0.879018
30061.122,129805,1.191810
30084.905,129806,2.460285
30084.956,129807,1.161014
30084.991,129808,1.790347
30100.043,129809,0.927051
30100.094,129810,0.688257
30123.181,129811,0.679963
30123.913,129812,0.459343
30123.952,129813,0.509467
30148.883,129814,0.485234
30148.933,129815,0.395515
30154.855,129816,0.524829
30154.898,129817,0.317407
30181.870,129818,0.433667
30181.937,129819,0.399987
30181.974,129820,-1210.022863
30195.942,129821,-1210.398544
30195.993,129822,0.742781
30205.993,129823,4.997308
30228.868,129824,8.464483
30228.916,129825,6.251070
30234.840,129826,0.088133
30234.876,129827,0.484513
30247.907,129828,0.610726
30261.869,129829,0.659480
30261.918,129830,0.537955
30277.499,129831,0.651980
30277.548,129832,0.514299
30299.917,129833,0.565073
30299.965,129834,0.618804
30300.000,129835,0.561106
30314.904,129836,0.745233
30314.957,129837,0.572285
30338.951,129838,0.703835
30339.007,129839,0.790453
30339.041,129840,0.718259
30355.898,129841,1.316003
30355.945,129842,1.055284
30370.003,129843,1.740439
30370.075,129844,2.039311
30383.923,129845,2.975234
30395.848,129846,3.093080
30395.892,129847,3.288674
30409.962,129848,3.626564
30410.041,129849,3.800161
30423.918,129850,3.785159
30437.030,129851,3.908992
30437.078,129852,3.798935
30451.043,129853,3.894063
30451.094,129854,3.747656
30459.968,129855,3.233501
30483.946,129856,2.212403
30484.011,129857,1.063361
30492.667,129858,0.901232
30492.731,129859,0.789443
30518.646,129860,0.596734
30518.700,129861,0.699868
30518.747,129862,0.531032
30531.697,129863,0.601350
30531.779,129864,0.548124
30544.976,129865,0.579209
30545.029,129866,0.639430
30557.852,129867,0.574521
30573.005,129868,0.669505
30573.055,129869,0.631281
30585.929,129870,0.607048
30585.982,129871,0.710759
30595.979,129872,0.552957
30618.345,129873,0.672606
30618.393,129874,0.696983
30635.974,129875,0.618515
30636.057,129876,0.703763
30636.095,129877,0.686526
30649.902,129878,0.665034
30649.954,129879,0.592984
30672.872,129880,0.690204
30672.921,129881,2.260364
30672.956,129882,1.089686
30697.942,129883,0.687752
30697.995,129884,0.705638
30704.942,129885,1.174501
30705.001,129886,1.826624
30729.883,129887,1.655264
30729.933,129888,3.072021
30729.969,129889,3.468041
30744.928,129890,3.378393
30744.979,129891,3.307642
30769.880,129892,2.429489
30769.928,129893,1.006025
30769.963,129894,0.956116
30785.889,129895,0.791751
30785.937,129896,0.731746
30809.008,129897,0.685011
30809.084,129898,0.662077
30809.143,129899,0.703042
30834.049,129900,0.621905
30834.102,129901,0.667558
30840.889,129902,0.642027
30840.934,129903,0.575963
30848.897,129904,0.289424
30872.892,129905,-1210.129242
30872.939,129906,1.741232
30879.833,129907,5.746507
30879.869,129908,8.652937
30892.964,129909,6.075093
30906.898,129910,0.146479
30906.946,129911,1.631391
30921.841,129912,3.082190
30921.880,129913,1.741088
30929.833,129914,1.422888
30952.902,129915,0.913276
30952.955,129916,1.094734
30962.851,129917,1.098340
30962.895,129918,1.634709
30988.403,129919,1.177602
30988.490,129920,1.091994
30988.553,129921,1.994091
31000.886,129922,1.512102
31000.936,129923,2.300968
31018.055,129924,2.170212
31018.103,129925,2.487475
31027.897,129926,2.570126
31043.001,129927,3.254056
31043.094,129928,3.272447
31055.878,129929,3.691041
31055.927,129930,3.650797
31064.032,129931,3.918152
31094.866,129932,3.894640
31094.926,129933,4.016093
31094.960,129934,4.224308
31094.991,129935,4.008232
31104.879,129936,4.215076
31127.911,129937,4.104514
31127.961,129938,4.042057
31134.849,129939,3.782419
31134.891,129940,1.771740
31148.948,129941,2.536950
31162.827,129942,2.361334
31162.867,129943,0.979917
31175.891,129944,0.973570
31175.941,129945,0.890269
31200.902,129946,0.897626
31200.956,129947,0.793194
31200.991,129948,0.781726
31214.861,129949,0.846780
31214.939,129950,0.757854
31239.917,129951,0.860772
31239.971,129952,0.846924
31240.006,129953,0.846780
31255.923,129954,0.899645
31255.972,129955,0.802065
31277.910,129956,0.939961
31277.961,129957,0.880677
31277.996,129958,0.946596
31296.983,129959,0.936571
31297.037,129960,0.820095
31309.956,129961,1.011001
31310.005,129962,0.864233
31322.869,129963,0.905415
31336.921,129964,0.955684
31336.982,129965,0.784395
31350.992,129966,0.884355
31351.044,129967,0.872455
31358.974,129968,0.913781
31382.892,129969,0.944361
31382.942,129970,1.144642
31392.819,129971,3.120991
31392.860,129972,3.248430
31403.036,129973,2.823418
31418.350,129974,3.681449
31418.398,129975,3.518526
31430.866,129976,3.604206
31430.910,129977,2.425450
31445.895,129978,1.495442
31445.946,129979,1.146806
31457.864,129980,0.923878
31472.046,129981,0.994485
31472.111,129982,0.904477
31486.022,129983,0.923662
31486.076,129984,0.946092
31493.902,129985,0.855651
31519.246,129986,0.960516
31519.294,129987,0.847862
31527.824,129988,0.748695
31537.493,129989,0.429196
31537.537,129990,0.163932
31550.002,129991,1.380119
31550.052,129992,5.477061
31572.940,129993,8.807854
31572.994,129994,6.985773
31573.030,129995,0.726337
31597.918,129996,2.295704
31597.969,129997,1.954063
31606.974,129998,2.454804
31607.026,129999,2.928427
31618.461,130000,2.706941
31632.922,130001,2.537960
31632.973,130002,3.536700
31646.001,130003,2.645998
31646.091,130004,2.864455
31669.842,130005,3.145657
31669.891,130006,3.181213
31669.926,130007,2.885947
31684.898,130008,3.262350
31684.947,130009,3.777442
31708.299,130010,3.615241
31708.360,130011,3.772971
31708.395,130012,3.856920
31726.330,130013,3.898823
31726.412,130014,4.024315
31739.924,130015,4.103216
31739.978,130016,4.306671
31752.907,130017,4.446371
31768.425,130018,4.334294
31768.484,130019,4.652422
31781.907,130020,4.613909
31781.956,130021,4.665043
31788.868,130022,4.627107
31814.791,130023,4.497072
31814.848,130024,4.449255
31820.133,130025,4.167043
31820.184,130026,3.177535
31833.903,130027,1.691108
31848.953,130028,1.434066
31849.180,130029,1.455487
31861.995,130030,1.277490
31862.046,130031,1.901054
31884.914,130032,2.128381
31884.966,130033,1.176881
31885.002,130034,1.306051
31900.928,130035,1.206018
31900.970,130036,1.339659
31924.939,130037,1.288020
31925.018,130038,1.147383
31925.074,130039,1.451159
31939.889,130040,1.242367
31939.938,130041,1.311099
31962.893,130042,1.309657
31962.945,130043,1.247921
31962.980,130044,1.414954
31988.642,130045,1.247993
31995.884,130046,1.270783
31995.941,130047,1.336630
31995.976,130048,1.224769
32005.033,130049,1.524219
32028.863,130050,1.181569
32028.917,130051,1.278933
32034.816,130052,1.257368
32034.852,130053,1.436230
32047.959,130054,3.105629
32062.109,130055,2.915228
32062.159,130056,3.393467
32076.333,130057,3.903078
32076.452,130058,4.016237
32099.947,130059,3.952554
32099.999,130060,3.750397
32100.033,130061,3.159144
32114.906,130062,3.080892
32114.958,130063,1.265951
32140.922,130064,1.310234
32140.975,130065,1.110529
32141.011,130066,1.196137
32155.887,130067,1.170246
32155.932,130068,1.107283
32178.937,130069,1.217197
32178.987,130070,1.111250
32180.806,130071,1.176015
32195.878,130072,0.865460
32195.927,130073,0.475786
32209.964,130074,1.157264
32210.007,130075,4.937879
32222.889,130076,8.606779
32236.895,130077,7.739083
32236.946,130078,1.794963
32250.847,130079,1.689377
32250.889,130080,2.475936
32259.885,130081,2.516756
32283.182,130082,2.592989
32283.270,130083,2.365878
32291.890,130084,2.464973
32291.939,130085,1.733804
32300.896,130086,2.571280
32318.450,130087,2.536085
32318.499,130088,2.274211
32338.065,130089,2.535869
32338.121,130090,2.674342
32361.910,130091,3.341251
32361.959,130092,3.920676
32361.994,130093,3.044110
32370.876,130094,3.741237
32370.923,130095,3.840477
32393.914,130096,3.922551
32393.963,130097,4.179232
32393.997,130098,4.146489
32418.127,130099,4.267509
32418.175,130100,4.307536
32424.850,130101,4.417522
32424.895,130102,4.627540
32472.863,130103,4.533493
32472.921,130104,4.641748
32472.956,130105,4.618597
32472.991,130106,4.582753
32473.024,130107,4.505655
32478.798,130108,4.122617
32493.887,130109,3.476551
32493.967,130110,2.298372
32506.862,130111,1.586748
32506.909,130112,1.577228
32517.010,130113,1.330933
32530.110,130114,1.400818
32530.191,130115,1.225274
32552.922,130116,1.186834
32552.970,130117,1.316292
32553.003,130118,1.143056
32577.902,130119,1.253113
32577.952,130120,1.254411
32585.894,130121,1.590715
32585.945,130122,2.491658
32612.930,130123,1.267321
32612.980,130124,1.317157
32613.014,130125,1.204143
32627.905,130126,1.168082
32627.953,130127,1.287227
32642.925,130128,1.095888
32642.976,130129,1.209912
32651.998,130130,1.149402
32666.261,130131,1.096898
32668.368,130132,1.200897
32687.937,130133,1.008477
32688.022,130134,1.060116
32688.085,130135,1.044754
32714.211,130136,0.978330
32714.494,130137,1.226356
32725.507,130138,1.452674
32725.564,130139,1.848838
32730.866,130140,1.952765
32744.894,130141,3.449001
32744.949,130142,3.641493
32769.876,130143,2.789592
32769.942,130144,1.639108
32769.984,130145,1.144138
32792.982,130146,0.990086
32793.084,130147,0.985037
32800.154,130148,0.745810
32800.244,130149,0.852406
32825.863,130150,0.833942
32825.912,130151,1.608673
32825.948,130152,1.156182
32839.875,130153,0.706143
32839.920,130154,0.793194
32862.901,130155,0.652268
32862.976,130156,0.228409
32863.237,130157,0.078757
32888.905,130158,2.590753
32888.957,130159,6.807056
32912.888,130160,8.628487
32912.948,130161,4.729448
32912.984,130162,0.571636
32920.191,130163,1.365623
32920.240,130164,1.110240
32943.889,130165,1.170318
32943.941,130166,1.074612
32943.977,130167,1.281024
32968.951,130168,1.061991
32968.999,130169,1.275038
32975.846,130170,1.503952
32975.884,130171,1.963944
32988.061,130172,2.046163
33001.924,130173,1.960482
33001.973,130174,2.465550
33016.961,130175,2.034984
33017.747,130176,2.397179
33030.908,130177,3.349256
33030.960,130178,3.503020
33042.899,130179,3.779390
33056.920,130180,3.849780
33056.969,130181,4.016021
33070.900,130182,4.154783
33070.955,130183,4.163437
33078.993,130184,4.406776
33102.974,130185,4.447957
33103.025,130186,4.353911
33109.831,130187,4.462309
33109.865,130188,4.526930
33123.353,130189,4.556645
33136.908,130190,4.519574
33136.956,130191,4.305661
33150.927,130192,4.277462
33150.977,130193,3.522781
33158.777,130194,2.077031
33183.069,130195,1.612640
33183.204,130196,1.361656
33191.968,130197,1.341534
33192.020,130198,1.230251
33201.973,130199,1.281024
33218.377,130200,1.309296
33218.445,130201,1.187843
33232.169,130202,1.338073
33232.269,130203,1.253185
33255.901,130204,1.435797
33255.951,130205,1.292420
33255.985,130206,1.401179
33271.457,130207,1.944976
33271.588,130208,1.570737
33285.914,130209,1.540302
33285.966,130210,1.783135
33297.925,130211,1.873576
33312.003,130212,3.624184
33312.052,130213,1.655624
33326.951,130214,1.583502
33327.003,130215,1.635574
33335.849,130216,1.431759
33368.242,130217,1.754863
33368.294,130218,1.586604
33368.330,130219,1.581339
33368.364,130220,1.922258
33373.837,130221,2.868277
33398.959,130222,3.883317
33399.006,130223,3.477561
33404.976,130224,4.018112
33405.013,130225,4.063044
33418.605,130226,3.926590
33431.900,130227,3.946568
33431.950,130228,2.107971
33445.877,130229,1.528834
33445.912,130230,1.304897
33470.909,130231,1.147816
33470.957,130232,1.185391
33470.991,130233,1.109808
33484.949,130234,1.123871
33485.000,130235,1.161014
33510.254,130236,1.056005
33510.300,130237,1.106851
33510.332,130238,1.029104
33524.970,130239,0.723668
33525.029,130240,0.352026
33547.998,130241,1.806070
33548.047,130242,5.571179
33548.078,130243,9.069295
33572.889,130244,7.325394
33572.937,130245,1.068554
33579.877,130246,1.638315
33579.925,130247,2.210889
33592.798,130248,3.000909
33606.905,130249,2.413262
33606.942,130250,2.201080
33620.950,130251,2.551735
33620.996,130252,2.577122
33629.941,130253,2.179155
33653.068,130254,3.186766
33653.105,130255,2.891284
33660.134,130256,2.815268
33660.182,130257,3.665870
33672.920,130258,3.199171
33686.906,130259,3.705465
33686.954,130260,3.764244
33700.915,130261,3.637671
33700.949,130262,3.879639
33724.926,130263,4.064198
33724.981,130264,4.226977
33725.016,130265,4.350305
33741.042,130266,4.374033
33741.089,130267,4.584339
33766.706,130268,4.590542
33767.828,130269,4.774812
33768.746,130270,4.807844
33780.549,130271,4.745675
33780.601,130272,4.808782
33803.308,130273,4.671895
33803.390,130274,4.491302
33803.470,130275,4.343164
33827.974,130276,2.412036
33828.023,130277,1.986374
33834.938,130278,1.612928
33835.006,130279,1.550904
33848.016,130280,1.486138
33861.959,130281,1.375720
33861.990,130282,1.443803
33876.095,130283,1.444380
33876.144,130284,1.300569
33886.091,130285,1.432263
33903.250,130286,1.344419
33903.297,130287,1.361728
33918.257,130288,1.424619
33918.306,130289,1.325596
33941.002,130290,1.473301
33941.051,130291,1.306267
33941.086,130292,1.724645
33956.118,130293,1.740511
33956.156,130294,1.597783
33970.850,130295,1.860233
33970.894,130296,1.411420
33982.921,130297,1.824749
33996.994,130298,1.653893
33997.027,130299,1.402117
34011.069,130300,1.556529
34011.117,130301,1.782414
34019.852,130302,3.540523
34043.041,130303,1.467747
34043.087,130304,1.351199
34049.931,130305,1.931129
34049.962,130306,2.329601
34063.741,130307,3.519175
34078.936,130308,3.102528
34079.031,130309,3.983927
34090.913,130310,4.074800
34090.958,130311,4.012054
34098.977,130312,3.962434
34122.912,130313,2.253368
34122.960,130314,1.580618
34129.894,130315,1.344636
34129.952,130316,1.183011
34143.868,130317,1.195128
34157.247,130318,1.209191
34157.294,130319,1.182578
34171.883,130320,1.270422
34171.932,130321,1.148465
34195.930,130322,1.178900
34195.979,130323,1.166567
34196.012,130324,0.905126
34211.150,130325,0.615486
34211.198,130326,0.894164
34224.905,130327,4.958001
34224.955,130328,8.541292
34237.918,130329,7.983071
34266.300,130330,2.482643
34268.332,130331,2.489927
34268.389,130332,3.824321
34268.478,130333,2.535580
34276.830,130334,3.412868
34289.978,130335,2.890058
34290.026,130336,2.212764
34313.252,130337,2.632872
34313.299,130338,2.831784
34318.563,130339,3.147460
34334.036,130340,3.351925
34334.086,130341,3.421666
34346.970,130342,3.874518
34347.010,130343,3.962723
34356.942,130344,3.987100
34370.959,130345,4.116919
34371.006,130346,4.108481
34392.990,130347,4.332635
34393.035,130348,4.394731
34418.795,130349,4.446226
34418.862,130350,4.544456
34418.913,130351,4.645643
34427.259,130352,4.828110
34427.300,130353,4.924321
34440.919,130354,4.930523
34440.966,130355,5.094744
34448.835,130356,4.937879
34472.929,130357,5.101740
34472.979,130358,4.912781
34479.938,130359,4.850180
34479.995,130360,4.753320
34492.872,130361,4.449400
34507.201,130362,4.325423
34507.248,130363,2.701388
34520.870,130364,2.091816
34520.916,130365,1.968488
34529.882,130366,1.745271
34552.839,130367,1.812272
34552.876,130368,1.767196
34562.048,130369,1.727169
34562.087,130370,2.057919
34570.843,130371,1.742603
34585.922,130372,2.305224
34585.975,130373,2.001808
34607.983,130374,2.429633
34608.025,130375,2.924460
34608.057,130376,2.044504
34632.908,130377,2.888904
34632.958,130378,2.436124
34642.812,130379,2.574093
34642.848,130380,2.867123
34675.738,130381,2.743290
34691.200,130382,2.961603
34701.224,130383,2.870657
34701.426,130384,2.091383
34701.606,130385,3.312042
34701.665,130386,2.357512
34707.891,130387,2.445140
34707.949,130388,2.978407
34721.912,130389,3.965247
34721.964,130390,4.256330
34736.916,130391,4.174111
34736.967,130392,4.496134
34744.794,130393,4.640017
34762.027,130394,4.420623
34762.073,130395,4.438293
34775.933,130396,2.691363
34776.011,130397,2.118501
34783.881,130398,1.794675
34809.110,130399,1.582853
34809.157,130400,1.588046
34816.407,130401,1.540013
34816.457,130402,1.496596
34839.013,130403,1.568068
34840.815,130404,1.466016
34840.852,130405,1.532080
34868.959,130406,1.352641
34869.015,130407,1.119472
34890.921,130408,0.741915
34890.974,130409,1.534965
34891.008,130410,5.754513
34916.650,130411,9.357926
34918.342,130412,7.726318
34927.874,130413,1.490105
34927.924,130414,2.296930
34927.959,130415,2.515314
34935.974,130416,2.450404
34936.029,130417,2.274500
34960.025,130418,2.180165
34960.081,130419,1.656345
34960.115,130420,2.515098
34985.940,130421,2.793703
34985.991,130422,3.805570
35011.094,130423,2.477811
35011.145,130424,2.015511
35011.179,130425,2.816638
35036.994,130426,2.575535
35037.044,130427,3.223188
35056.965,130428,3.538503
35057.013,130429,3.926878
35057.047,130430,4.146777
35057.079,130431,3.768211
35057.112,130432,4.353838
35082.929,130433,4.519502
35083.000,130434,4.516833
35083.040,130435,4.752383
35108.919,130436,4.723318
35108.971,130437,4.841020
35132.964,130438,4.944082
35133.023,130439,4.853858
35157.926,130440,4.906579
35157.975,130441,4.787578
35158.010,130442,4.584916
35174.887,130443,4.357877
35199.892,130444,2.971700
35200.028,130445,2.046740
35200.116,130446,1.741449
35200.207,130447,1.691541
35225.888,130448,1.710653
35225.940,130449,1.515852
35225.976,130450,1.634204
35226.011,130451,2.686819
35253.000,130452,2.650542
35253.050,130453,1.638099
35253.086,130454,1.558260
35267.250,130455,1.613866
35267.304,130456,1.556817
35270.839,130457,1.653316
35270.886,130458,1.842708
35270.921,130459,1.680001
35296.905,130460,1.985653
35296.956,130461,1.924926
35296.991,130462,2.163216
35322.005,130463,2.276375
35322.057,130464,1.910790
35347.031,130465,2.355276
35347.078,130466,1.920166
35368.859,130467,2.475791
35368.911,130468,2.313229
35368.945,130469,1.731135
35370.808,130470,2.046307
35370.843,130471,2.037941
35395.013,130472,3.000620
35395.062,130473,3.996836
35395.096,130474,3.462127
35420.953,130475,4.085546
35421.012,130476,4.310061
35446.907,130477,4.243132
35446.957,130478,4.350449
35446.993,130479,4.098023
35455.913,130480,3.098129
35455.960,130481,2.131483
35482.892,130482,3.638825
35482.944,130483,1.603408
35482.980,130484,1.410843
35509.992,130485,1.403126
35510.040,130486,1.414522
35534.982,130487,1.306700
35535.032,130488,1.351199
35535.067,130489,1.369806
35560.915,130490,1.307781
35560.968,130491,1.084060
35561.002,130492,0.523747
35561.035,130493,1.111394
35568.906,130494,5.101451
35568.962,130495,8.835909
35569.010,130496,8.086710
35592.985,130497,2.070756
35593.033,130498,1.486715
35618.982,130499,1.838885
35619.040,130500,1.846097
35642.978,130501,2.014501
35643.036,130502,1.719884
35643.071,130503,1.663485
35668.870,130504,1.502726
35669.981,130505,1.831961
35670.028,130506,1.884755
35684.903,130507,2.724322
35684.952,130508,2.579069
35691.452,130509,3.074473
35691.504,130510,2.840222
35691.539,130511,3.028892
35719.136,130512,3.732006
35719.208,130513,3.432340
35719.281,130514,3.437677
35719.367,130515,3.812998
35725.914,130516,4.217529
35750.890,130517,4.187526
35750.938,130518,4.470748
35775.866,130519,4.446875
35775.916,130520,4.492961
35775.951,130521,4.583834
35786.872,130522,4.612539
35786.916,130523,4.775389
35796.916,130524,4.582969
35796.975,130525,4.545754
35820.891,130526,4.368912
35820.938,130527,3.177463
35820.973,130528,2.112659
35847.026,130529,1.723995
35847.080,130530,1.504457
35871.547,130531,1.442144
35871.640,130532,1.315571
35871.705,130533,1.365479
35896.945,130534,1.254123
35896.995,130535,1.252969
35916.902,130536,1.266528
35916.954,130537,1.241646
35916.992,130538,1.292420
35920.874,130539,1.242151
35920.920,130540,1.337351
35946.985,130541,2.226683
35947.037,130542,1.891895
35947.072,130543,1.366200
35972.889,130544,1.314705
35972.938,130545,1.314777
35996.971,130546,1.354661
35997.048,130547,1.261119
35997.111,130548,1.350694
36019.897,130549,1.276553
36019.948,130550,1.315138
36025.825,130551,1.266600
36025.862,130552,1.237463
36049.979,130553,1.329490
36050.030,130554,1.315931
36050.064,130555,1.335981
36074.943,130556,1.943101
36074.994,130557,2.784328
36100.838,130558,2.673765
36100.891,130559,3.555524
36100.926,130560,4.131920
36131.178,130561,3.840621
36131.235,130562,3.926157
36131.275,130563,3.171693
36131.555,130564,1.490682
36156.959,130565,1.414810
36157.363,130566,1.295016
36157.404,130567,1.133752
36183.921,130568,1.218351
36183.971,130569,1.118679
36209.000,130570,1.181857
36209.051,130571,2.643330
36209.085,130572,1.406516
36233.936,130573,1.180847
36233.987,130574,1.085503
36257.963,130575,0.719702
36258.021,130576,0.373302
36258.056,130577,1.318960
36285.000,130578,5.654047
36285.052,130579,9.076363
36309.900,130580,6.901968
36309.949,130581,0.929720
36309.984,130582,1.641200
36321.862,130583,1.825615
36321.919,130584,1.922474
36328.922,130585,2.021569
36328.983,130586,2.033181
36329.018,130587,1.542177
36354.986,130588,2.077464
36355.036,130589,1.824533
36355.070,130590,2.006856
36355.103,130591,2.571064
36380.890,130592,2.454011
36380.940,130593,3.352430
36380.975,130594,2.972349
36407.030,130595,3.119982
36407.076,130596,3.806075
36407.108,130597,3.701931
36432.861,130598,3.918152
36432.920,130599,3.814441
36432.956,130600,3.782275
36432.990,130601,4.282654
36437.820,130602,4.258638
36437.855,130603,4.471397
36437.887,130604,4.515752
36442.934,130605,4.544240
36442.969,130606,4.652711
36467.614,130607,4.469810
36492.969,130608,4.584267
36493.027,130609,4.452645
36493.062,130610,4.164591
36493.095,130611,3.395919
36518.544,130612,1.636728
36518.617,130613,1.521262
36518.677,130614,1.490682
36539.254,130615,1.325956
36539.305,130616,1.354372
36539.339,130617,1.109880
36539.372,130618,1.191666
36566.206,130619,1.165918
36591.944,130620,1.109231
36592.026,130621,1.149330
36592.088,130622,1.123511
36592.152,130623,1.143344
36619.867,130624,1.159572
36627.898,130625,1.058024
36627.945,130626,1.248065
36627.980,130627,1.101225
36628.013,130628,1.114928
36654.283,130629,1.099278
36654.340,130630,1.104110
36654.375,130631,2.182112
36680.907,130632,1.563308
36680.961,130633,1.163106
36710.904,130634,1.076992
36710.954,130635,0.944721
36710.989,130636,1.109303
36736.869,130637,0.917676
36736.920,130638,1.005808
36762.091,130639,1.024271
36762.188,130640,1.126107
36762.260,130641,1.326894
36786.894,130642,1.188060
36786.948,130643,3.082190
36812.945,130644,3.054062
36813.017,130645,2.610587
36813.071,130646,2.023589
36831.900,130647,1.135627
36831.951,130648,1.089758
36837.846,130649,0.969098
36837.891,130650,0.883057
36837.926,130651,0.893875
36863.068,130652,0.745089
36863.134,130653,0.846275
36888.926,130654,0.834664
36888.976,130655,0.759946
36889.010,130656,0.849376
36917.691,130657,0.690781
36917.756,130658,0.500813
36944.008,130659,0.123256
36944.059,130660,1.337207
36944.095,130661,5.420589
36971.657,130662,8.461959
36971.754,130663,6.599778
36971.816,130664,0.608851
36971.868,130665,1.545422
36995.924,130666,1.137430
36995.975,130667,1.177241
36996.010,130668,1.616101
37024.897,130669,1.128271
37024.955,130670,1.412286
37032.820,130671,1.156110
37034.829,130672,1.118462
37034.864,130673,1.837587
37034.897,130674,1.903146
37034.931,130675,1.759191
37059.938,130676,2.493100
37059.991,130677,2.019983
37060.028,130678,2.888760
37085.897,130679,3.313268
37085.947,130680,3.373417
37110.905,130681,3.657721
37110.954,130682,3.729121
37110.988,130683,3.862546
37140.941,130684,4.033258
37140.991,130685,3.944981
37147.149,130686,4.246089
37147.232,130687,4.299531
37147.266,130688,4.331625
37172.933,130689,4.495702
37172.983,130690,4.439447
37173.018,130691,4.537532
37173.051,130692,4.401799
37198.905,130693,4.254383
