timestamp_ms,sample_index,raw_ecg_mv
9.968,2179,2.920493
10.066,2180,1.111178
10.135,2181,0.970397
38.945,2182,0.675131
39.053,2183,0.753455
62.962,2184,0.638276
63.048,2185,0.616279
64.812,2186,0.662509
70.891,2187,0.743502
70.968,2188,0.998091
71.033,2189,2.956915
71.096,2190,4.095859
106.129,2191,5.748527
121.988,2192,8.936663
122.095,2193,8.345266
122.180,2194,4.335808
122.266,2195,0.719846
151.557,2196,1.728828
168.283,2197,3.138012
168.444,2198,2.407708
168.566,2199,1.725726
168.688,2200,1.612567
193.963,2201,1.739862
196.811,2202,1.821360
196.958,2203,2.195310
220.120,2204,2.271471
220.293,2205,2.500745
245.031,2206,2.794425
249.019,2207,2.601860
252.302,2208,3.233213
264.060,2209,3.320696
264.227,2210,3.326322
270.043,2211,3.471430
270.167,2212,3.539585
270.264,2213,3.642286
296.054,2214,3.733088
296.161,2215,3.866368
296.242,2216,3.960271
322.000,2217,4.124347
322.114,2218,4.247603
353.797,2219,4.363575
353.926,2220,4.451852
353.990,2221,4.483441
354.053,2222,4.493538
367.980,2223,4.397472
394.594,2224,4.180386
394.826,2225,3.895866
394.945,2226,3.250955
395.036,2227,1.294655
422.482,2228,0.955900
446.834,2229,0.825648
446.967,2230,0.768384
447.078,2231,0.728717
447.186,2232,0.708162
466.392,2233,0.700229
466.490,2234,0.666115
466.571,2235,0.675852
472.974,2236,0.680612
473.058,2237,0.645561
473.117,2238,1.759840
473.175,2239,1.352713
498.974,2240,0.646210
525.167,2241,0.656451
525.347,2242,0.664024
525.460,2243,0.666909
525.526,2244,0.653710
552.562,2245,0.682631
568.179,2246,0.665250
568.341,2247,0.660706
570.922,2248,0.769682
570.991,2249,0.705638
596.869,2250,0.685660
596.989,2251,0.669505
597.148,2252,0.639070
621.410,2253,0.635824
621.558,2254,0.642387
654.095,2255,0.716384
654.230,2256,0.688978
654.335,2257,0.674337
660.969,2258,0.552380
661.136,2259,0.669866
661.341,2260,0.683136
661.503,2261,0.775957
661.632,2262,0.792617
687.953,2263,0.888394
688.037,2264,0.978907
712.047,2265,1.015328
712.178,2266,1.010713
712.284,2267,1.321557
751.600,2268,0.915656
751.680,2269,2.711052
751.752,2270,1.086440
751.813,2271,1.004149
751.871,2272,0.797593
777.105,2273,1.428657
777.223,2274,1.841121
777.315,2275,1.522848
777.398,2276,1.054923
803.938,2277,0.998380
811.946,2278,1.138440
812.013,2279,1.087811
812.066,2280,0.579425
812.119,2281,0.499370
847.534,2282,0.582815
871.054,2283,0.606831
871.174,2284,0.735929
871.277,2285,0.720423
871.372,2286,0.718620
898.194,2287,2.151677
923.017,2288,3.730347
923.106,2289,4.824576
923.181,2290,7.832048
923.298,2291,9.051914
950.984,2292,5.399891
951.090,2293,1.828355
951.172,2294,0.907146
957.175,2295,3.005741
957.414,2296,2.894674
957.610,2297,1.481667
957.785,2298,1.783568
987.214,2299,2.880394
987.292,2300,1.285640
987.479,2301,1.483181
1009.980,2302,1.674304
1010.062,2303,1.772605
1039.276,2304,2.502909
1039.396,2305,2.313373
1039.522,2306,2.911262
1053.419,2307,3.056803
1053.497,2308,3.118467
1055.958,2309,3.248863
1056.070,2310,3.283337
1056.161,2311,3.350843
1085.980,2312,3.482465
1086.070,2313,3.705465
1108.380,2314,3.845669
1111.113,2315,3.940582
1111.213,2316,4.067732
1136.643,2317,4.212552
1136.743,2318,4.322105
1136.815,2319,4.424590
1136.883,2320,4.445072
1161.044,2321,4.334149
1161.183,2322,4.167116
1161.294,2323,3.860743
1180.393,2324,3.458304
1180.531,2325,1.663197
1180.588,2326,0.950852
1206.025,2327,0.803291
1206.117,2328,1.521766
1206.182,2329,0.853992
1233.065,2330,0.624285
1233.231,2331,0.616640
1257.997,2332,0.596879
1258.087,2333,0.613899
1259.833,2334,0.610077
1259.956,2335,0.588080
1268.097,2336,0.581156
1271.000,2337,0.555048
1271.125,2338,0.601422
1302.526,2339,0.595797
1302.618,2340,0.568463
1302.682,2341,0.582094
1320.982,2342,0.570266
1321.082,2343,0.582022
1347.977,2344,0.561900
1348.070,2345,0.568607
1348.131,2346,0.572213
1348.193,2347,0.575963
1348.253,2348,0.595653
1373.128,2349,0.652845
1373.218,2350,0.557356
1403.200,2351,0.536873
1403.289,2352,0.545456
1403.353,2353,0.547115
1422.056,2354,0.477157
1422.236,2355,0.498433
1447.996,2356,0.512496
1448.082,2357,0.487470
1448.145,2358,2.017819
1469.102,2359,2.004765
1469.277,2360,0.479969
1472.872,2361,0.558871
1472.943,2362,0.452780
1472.997,2363,0.472541
1501.011,2364,0.503553
1501.099,2365,0.522377
1501.167,2366,0.507592
1501.231,2367,0.470810
1526.045,2368,0.457900
1526.125,2369,0.533700
1526.189,2370,0.438716
1558.298,2371,0.472757
1558.487,2372,0.406405
1558.597,2373,0.436264
1566.168,2374,0.536296
1566.340,2375,0.551009
1566.423,2376,0.566227
1566.524,2377,0.907939
1595.500,2378,1.269629
1595.601,2379,0.683425
1616.014,2380,0.561251
1616.097,2381,0.712994
1616.159,2382,0.527137
1642.916,2383,0.376042
1643.160,2384,0.302478
1657.025,2385,0.279183
1657.135,2386,0.277885
1664.909,2387,0.271466
1665.036,2388,0.706720
1665.097,2389,2.399559
1690.605,2390,0.400275
1715.095,2391,3.040504
1715.196,2392,4.171731
1715.270,2393,6.602302
1715.340,2394,9.104562
1742.160,2395,6.337255
1742.333,2396,2.037220
1742.474,2397,0.156504
1770.659,2398,0.922003
1770.760,2399,1.742675
1770.822,2400,0.734992
1802.498,2401,0.504419
1802.601,2402,0.471243
1802.665,2403,0.461074
1802.733,2404,0.745593
1821.999,2405,0.708451
1822.099,2406,1.120482
1849.799,2407,1.508712
1851.418,2408,1.451881
1851.482,2409,2.052870
1879.107,2410,2.145474
1879.255,2411,2.638498
1886.828,2412,2.907151
1886.945,2413,2.936144
1887.010,2414,3.022257
1911.087,2415,3.096254
1911.231,2416,3.265812
1911.389,2417,3.476479
1939.514,2418,3.590864
1940.587,2419,3.718880
1962.991,2420,3.815667
1963.091,2421,3.936254
1964.915,2422,4.048980
1971.951,2423,4.088792
1972.012,2424,4.054966
2001.381,2425,3.881586
2001.524,2426,3.666015
2001.636,2427,3.011222
2023.014,2428,0.947534
2023.161,2429,0.605389
2048.290,2430,0.430638
2048.475,2431,0.336375
2048.831,2432,0.229996
2076.042,2433,0.198767
2076.185,2434,0.153547
2076.303,2435,0.151816
2076.415,2436,0.116044
2086.210,2437,0.113087
2086.336,2438,0.102124
2086.405,2439,0.060726
2089.959,2440,0.075583
2090.168,2441,0.086474
2111.038,2442,0.071473
2111.124,2443,0.064621
2138.700,2444,0.069814
2139.393,2445,0.088277
2139.565,2446,0.079045
2162.276,2447,0.040532
2162.430,2448,0.918685
2162.549,2449,0.081209
2187.696,2450,0.042408
2191.204,2451,0.027046
2191.389,2452,0.014208
2191.472,2453,0.004039
2212.981,2454,-1210.009232
2245.710,2455,-1210.014136
2245.805,2456,-1210.014208
2245.869,2457,-1210.035844
2245.931,2458,-1210.034330
2264.989,2459,-1210.082940
2265.082,2460,-1210.085031
2265.156,2461,-1210.069093
2294.778,2462,-1210.075006
2294.861,2463,-1210.080560
2294.925,2464,-1210.053370
2294.987,2465,-1210.081209
2295.047,2466,-1210.060149
2318.411,2467,-1210.037359
2318.562,2468,-1210.080271
2318.680,2469,-1210.005842
2318.807,2470,0.041398
2343.569,2471,-1210.045220
2344.929,2472,-1210.079117
2345.006,2473,-1210.104865
2370.008,2474,-1210.125708
2370.092,2475,-1210.146768
2370.157,2476,-1210.214057
2395.914,2477,-1210.234107
2395.990,2478,-1210.050413
2396.050,2479,0.155278
2396.105,2480,-1210.219682
2411.028,2481,-1210.214418
2411.190,2482,-1210.246007
2411.335,2483,0.101836
2439.936,2484,3.089546
2440.013,2485,4.539624
2440.071,2486,7.749757
2463.079,2487,8.077550
2463.248,2488,3.821076
2494.623,2489,-1210.113159
2494.718,2490,-1210.190690
2494.786,2491,0.226029
2494.886,2492,0.083012
2495.061,2493,-1210.011972
2516.998,2494,-1210.045941
2517.101,2495,-1210.065703
2543.562,2496,-1210.048610
2545.400,2497,-1210.013992
2545.464,2498,0.008006
2569.098,2499,0.050052
2569.181,2500,0.098662
2594.602,2501,0.265912
2594.681,2502,0.593633
2594.750,2503,0.821826
2611.999,2504,1.525949
2612.180,2505,2.376985
2617.913,2506,2.520290
2618.041,2507,2.607341
2620.881,2508,2.850319
2646.984,2509,2.940687
2647.079,2510,3.065746
2647.152,2511,3.220808
2647.223,2512,3.347021
2672.139,2513,3.420368
2672.300,2514,3.569227
2672.424,2515,3.622525
2704.068,2516,3.623102
2704.203,2517,3.497466
2704.304,2518,3.264874
2710.166,2519,2.133069
2710.327,2520,0.443981
2736.467,2521,0.221990
2736.713,2522,0.036277
2761.141,2523,-1210.108687
2761.384,2524,-1210.209369
2761.433,2525,-1210.256392
2786.380,2526,-1210.237713
2786.750,2527,-1210.257041
2812.985,2528,-1210.299593
2813.140,2529,-1210.312359
2814.848,2530,-1210.312719
2822.570,2531,-1210.310916
2822.651,2532,-1210.303488
2822.712,2533,-1210.345102
2822.778,2534,-1210.321446
2846.978,2535,-1210.330245
2873.188,2536,-1210.329740
2873.309,2537,-1210.303488
2873.372,2538,-1210.011035
2873.432,2539,-1210.305147
2899.060,2540,-1210.311638
2916.177,2541,-1210.309330
2916.249,2542,-1210.295843
2916.289,2543,-1210.325701
2916.330,2544,-1210.330245
2941.988,2545,-1210.349934
2942.082,2546,-1210.354911
2942.155,2547,-1210.351809
2968.052,2548,-1210.393496
2968.132,2549,-1210.375177
2994.780,2550,-1210.382461
2994.883,2551,-1210.407415
2994.964,2552,-1210.390971
3023.080,2553,-1210.403953
3023.170,2554,-1210.411021
3031.826,2555,-1210.408136
3032.009,2556,-1210.401140
3034.060,2557,-1210.419459
3055.906,2558,-1210.432802
3055.966,2559,-1210.383759
3056.015,2560,-1210.441889
3056.061,2561,-1210.442033
3085.269,2562,-1210.433379
3107.938,2563,-1210.427032
3108.025,2564,-1210.418450
3108.092,2565,-1210.434893
3108.159,2566,-1210.433307
3138.029,2567,-1210.455015
3162.065,2568,-1210.299665
3162.178,2569,0.019761
3162.267,2570,-1210.458549
3162.352,2571,-1210.417801
3189.358,2572,-1210.415637
3226.083,2573,-1210.429989
3226.215,2574,-1210.414411
3226.318,2575,-1210.332048
3226.390,2576,-1210.289424
3233.062,2577,-1210.386428
3233.115,2578,-1210.398760
3233.164,2579,-1210.416502
3235.890,2580,-1210.430566
3235.945,2581,-1210.496197
3260.011,2582,-1210.496630
3260.088,2583,-1210.487254
3260.137,2584,-1210.520358
3286.472,2585,-1210.510116
3286.632,2586,-1210.532835
3310.035,2587,-1210.506438
3310.141,2588,-1210.427249
3310.211,2589,2.020271
3343.762,2590,3.448135
3343.837,2591,5.886784
3366.349,2592,8.312595
3366.504,2593,5.599812
3366.632,2594,0.985758
3391.995,2595,-1210.504058
3392.106,2596,-1210.089719
3426.252,2597,-1210.088133
3426.303,2598,0.335943
3426.337,2599,0.590748
3452.223,2600,-1210.291299
3452.374,2601,-1210.290073
3477.221,2602,-1210.214850
3477.378,2603,-1210.211965
3477.508,2604,-1210.188887
3503.103,2605,-1210.130180
3503.253,2606,0.042768
3522.228,2607,0.004399
3522.379,2608,0.609356
3522.485,2609,0.933326
3522.521,2610,1.215538
3536.607,2611,1.937548
3536.686,2612,2.333567
3536.747,2613,2.515458
3555.964,2614,2.707013
3556.038,2615,2.805820
3556.095,2616,2.939750
3586.709,2617,3.091133
3586.800,2618,3.224702
3586.857,2619,3.345073
3586.909,2620,3.403636
3612.071,2621,3.468329
3612.134,2622,3.469627
3612.177,2623,3.322283
3618.294,2624,3.009852
3618.435,2625,2.357151
3620.177,2626,0.392919
3645.219,2627,0.099456
3645.386,2628,0.876855
3645.464,2629,1.161086
3645.507,2630,-1210.066063
3671.284,2631,-1210.305724
3671.544,2632,-1210.301757
3671.614,2633,-1210.317696
3698.187,2634,-1210.312792
3698.324,2635,-1210.321446
3698.399,2636,-1210.335726
3698.464,2637,-1210.316398
3698.529,2638,-1210.317696
3719.045,2639,-1210.330245
3719.141,2640,-1210.315388
3745.318,2641,-1210.319499
3745.410,2642,-1210.335005
3769.787,2643,-1210.312142
3772.834,2644,-1210.333923
3772.891,2645,-1210.326567
3800.930,2646,-1210.345246
3801.327,2647,-1210.335005
3801.878,2648,-1210.348780
3813.076,2649,-1210.342361
3813.223,2650,-1210.339116
3813.290,2651,-1210.375393
3813.353,2652,-1210.369335
3831.942,2653,-1210.381523
3832.532,2654,-1210.386428
3832.597,2655,-1210.372580
3858.098,2656,-1210.401862
3858.176,2657,-1210.408353
3882.898,2658,-1210.401862
3883.034,2659,0.286395
3883.489,2660,-1210.031878
3901.976,2661,-1210.384408
3902.083,2662,-1210.397390
3905.863,2663,-1210.408785
3905.945,2664,-1210.445063
3906.006,2665,-1210.418450
3908.900,2666,-1210.403809
3909.004,2667,-1210.414916
3937.858,2668,-1210.412968
3937.958,2669,-1210.435687
3938.031,2670,-1210.424364
3958.003,2671,-1210.390250
3988.266,2672,-1210.413329
3988.348,2673,-1210.424652
3988.405,2674,-1210.434821
3995.959,2675,-1210.443476
4022.180,2676,-1210.409362
4022.271,2677,-1210.392919
4022.336,2678,-1210.391909
4022.398,2679,-1210.407271
4046.964,2680,-1210.347915
4072.099,2681,-1210.282284
4072.193,2682,-1210.275433
4072.249,2683,-1210.374239
4072.302,2684,-1210.378711
4099.990,2685,-1210.369551
4105.928,2686,-1210.428835
4106.003,2687,-1210.485811
4106.064,2688,-1210.488624
4106.123,2689,-1210.157802
4133.598,2690,-1210.182540
4133.677,2691,-1210.484369
4134.094,2692,-1210.463309
4158.052,2693,-1210.494754
4158.184,2694,-1210.017814
4188.980,2695,2.792261
4189.070,2696,4.242771
4189.139,2697,7.439923
4191.902,2698,7.766129
4191.984,2699,3.640844
4197.008,2700,-1210.285674
4197.152,2701,-1210.426167
4197.289,2702,-1210.004399
4223.054,2703,-1210.097148
4223.143,2704,-1210.185353
4250.617,2705,-1210.223577
4250.698,2706,-1210.238795
4250.771,2707,-1210.237785
4273.026,2708,-1210.192421
4273.128,2709,-1210.135805
4300.026,2710,-1210.096138
4300.141,2711,-1210.020987
4300.233,2712,0.189608
4327.439,2713,0.347698
4327.597,2714,1.073819
4350.973,2715,1.377595
4351.059,2716,2.097369
4351.131,2717,2.348641
4377.973,2718,2.446654
4378.047,2719,2.687829
4405.033,2720,2.788871
4405.154,2721,2.928571
4405.249,2722,3.040359
4405.341,2723,3.198666
4405.432,2724,3.298555
4409.896,2725,3.411930
4409.956,2726,3.500351
4441.876,2727,3.509799
4441.964,2728,3.453039
4460.969,2729,3.266316
4461.060,2730,2.890202
4461.122,2731,0.796079
4488.102,2732,0.193791
4488.250,2733,-1210.010530
4509.046,2734,-1210.140637
4509.195,2735,-1210.252498
4509.292,2736,-1210.301252
4534.506,2737,-1210.319138
4534.675,2738,-1210.334789
4535.058,2739,-1210.356569
4559.980,2740,-1210.392053
4560.069,2741,-1210.399410
4560.135,2742,-1210.396525
4560.200,2743,-1210.404747
4586.680,2744,-1210.416935
4586.779,2745,-1210.394289
4586.843,2746,-1210.417512
4618.098,2747,-1210.389529
4618.168,2748,-1210.364647
4618.222,2749,0.015146
4618.272,2750,-1210.368037
4618.321,2751,-1210.368325
4642.987,2752,-1210.398328
4643.075,2753,-1210.406838
4644.878,2754,-1210.423426
4644.966,2755,-1210.398184
4645.033,2756,-1210.400491
4670.074,2757,-1210.414411
4670.157,2758,-1210.430206
4670.219,2759,-1210.462372
4670.278,2760,-1210.471675
4698.165,2761,-1210.419676
4698.495,2762,-1210.441601
4698.570,2763,-1210.493889
4704.268,2764,-1210.508025
4704.362,2765,-1210.504707
4704.444,2766,-1210.498793
4716.712,2767,-1210.519204
4716.807,2768,-1210.505861
4716.864,2769,-1210.518122
4717.850,2770,-1210.540335
4736.647,2771,-1210.491581
4737.657,2772,-1210.531248
4741.991,2773,-1210.536296
4764.744,2774,-1210.497351
4764.838,2775,-1210.534782
4788.032,2776,-1210.529084
4788.459,2777,-1210.514660
4788.538,2778,-1210.495620
4798.532,2779,-1210.203527
4799.108,2780,0.081497
4800.164,2781,-1210.363854
4800.357,2782,-1210.453573
4809.175,2783,-1210.510982
4809.280,2784,-1210.508890
4809.362,2785,-1210.504130
4856.986,2786,-1210.539181
4857.134,2787,-1210.604740
4857.238,2788,-1210.618876
4883.155,2789,-1210.620823
4883.584,2790,-1210.632939
4892.502,2791,-1210.614188
4892.591,2792,-1210.631208
4892.657,2793,-1210.614404
4899.412,2794,-1210.240093
4899.534,2795,2.646431
4900.043,2796,4.100331
4900.117,2797,7.249017
4900.190,2798,7.931143
4926.044,2799,3.927744
4926.188,2800,-1210.406910
4926.292,2801,-1210.518050
4926.391,2802,-1210.123761
4952.962,2803,-1210.256032
4977.925,2804,-1210.348059
4977.994,2805,-1210.416575
4978.046,2806,-1210.389745
4978.096,2807,-1210.366811
5008.353,2808,-1210.296348
5008.553,2809,0.379071
5008.658,2810,0.604668
5011.123,2811,-1210.244925
5011.306,2812,-1210.218601
5017.016,2813,-1210.121020
5017.140,2814,0.173669
5043.078,2815,0.488336
5066.990,2816,0.947029
5067.122,2817,1.569006
5067.222,2818,2.252791
5067.321,2819,2.545533
5093.054,2820,2.538537
5113.026,2821,2.769110
5113.117,2822,2.900299
5113.189,2823,3.023771
5113.439,2824,3.165058
5121.242,2825,3.268624
5145.952,2826,3.350699
5146.033,2827,3.329062
5172.035,2828,3.271293
5172.112,2829,3.070073
5172.170,2830,2.351381
5204.035,2831,0.463237
5204.118,2832,-1210.015578
5210.967,2833,-1210.174246
5211.086,2834,-1210.321446
5211.153,2835,-1210.406117
5211.216,2836,-1210.442755
5211.279,2837,-1210.480186
5239.320,2838,-1210.499010
5239.445,2839,-1210.349141
5239.548,2840,-1210.502255
5239.655,2841,-1210.505500
5263.040,2842,-1210.503625
5263.113,2843,-1210.513434
5263.170,2844,-1210.533051
5289.979,2845,-1210.524252
5290.062,2846,-1210.524396
5290.126,2847,-1210.536080
5297.902,2848,-1210.537234
5297.967,2849,-1210.541778
5299.887,2850,-1210.541056
5299.958,2851,-1210.524829
5302.942,2852,-1210.519348
5328.348,2853,-1210.502544
5328.485,2854,-1210.531032
5352.994,2855,-1210.531969
5353.077,2856,-1210.549639
5353.140,2857,-1210.547043
5381.099,2858,-1210.546538
5381.187,2859,-1210.537522
5413.119,2860,-1210.574232
5413.216,2861,-1210.575531
5414.846,2862,-1210.569472
5414.917,2863,-1210.558654
5414.975,2864,-1210.586205
5417.992,2865,-1210.607697
5418.052,2866,-1210.597816
5443.010,2867,-1210.602143
5443.092,2868,-1210.614332
5443.151,2869,-1210.532113
5469.119,2870,-1210.375393
5469.213,2871,-1210.613899
5493.225,2872,-1210.623780
5493.474,2873,-1210.610293
5493.690,2874,-1210.574305
5522.719,2875,-1210.613467
5522.825,2876,-1210.623708
5527.176,2877,-1210.636185
5527.332,2878,-1210.629117
5527.453,2879,-1210.629550
5552.971,2880,-1210.639430
5553.055,2881,-1210.632146
5554.831,2882,-1210.631281
5554.898,2883,-1210.609067
5579.785,2884,-1210.614693
5611.127,2885,-1210.627025
5611.224,2886,-1210.627314
5611.290,2887,-1210.651330
5611.353,2888,-1210.628396
5617.966,2889,-1210.621616
5618.053,2890,-1210.647508
5618.119,2891,-1210.624501
5644.558,2892,-1210.615702
5644.647,2893,-1210.585844
5668.283,2894,-1210.586060
5668.368,2895,-1210.573655
5668.430,2896,-1210.491004
5692.986,2897,-1210.536873
5693.070,2898,-1210.619381
5736.186,2899,-1210.118929
5738.014,2900,-1210.304353
5738.080,2901,-1210.661644
5758.053,2902,-1210.702176
5758.129,2903,-1210.714148
5760.283,2904,-1210.710903
5760.448,2905,-1210.733621
5788.598,2906,-1210.711336
5791.328,2907,-1210.705061
5791.431,2908,-1210.678376
5795.501,2909,0.537522
5798.686,2910,2.918834
5817.962,2911,4.628406
5819.900,2912,7.813008
5819.984,2913,6.967238
5844.951,2914,2.567025
5845.026,2915,-1210.678737
5870.035,2916,-1210.341280
5870.178,2917,-1210.243410
5870.304,2918,-1210.369191
5895.946,2919,-1210.462516
5896.028,2920,-1210.488191
5914.990,2921,-1210.480330
5915.083,2922,-1210.467060
5915.156,2923,-1210.444486
5941.819,2924,-1210.407054
5941.905,2925,-1210.379720
5941.981,2926,-1210.359021
5942.056,2927,-1210.306373
5942.120,2928,-1210.287260
5967.021,2929,1.102235
5967.116,2930,1.795324
6000.273,2931,0.623708
6000.448,2932,1.223183
6000.577,2933,1.754791
6027.023,2934,2.253585
6027.125,2935,2.374533
6027.179,2936,2.665111
6027.231,2937,2.747978
6053.052,2938,2.836616
6053.148,2939,2.992975
6053.222,2940,3.097047
6079.071,2941,3.157773
6079.157,2942,3.186406
6079.479,2943,3.144719
6079.534,2944,2.967372
6079.588,2945,1.962934
6105.992,2946,0.359887
6106.078,2947,-1210.023295
6106.141,2948,-1210.214490
6113.022,2949,-1210.326711
6113.135,2950,-1210.443909
6113.222,2951,-1210.455520
6113.307,2952,-1210.495043
6139.982,2953,-1210.505068
6140.071,2954,-1210.496485
6140.146,2955,-1210.493600
6190.953,2956,-1210.498577
6191.075,2957,-1210.492086
6191.153,2958,-1210.486749
6191.226,2959,-1210.438716
6191.300,2960,-1210.119289
6207.781,2961,-1210.507015
6207.906,2962,-1210.492807
6213.012,2963,-1210.492663
6213.113,2964,-1210.513939
6213.188,2965,-1210.511559
6239.058,2966,-1210.540191
6239.189,2967,-1210.544735
6239.254,2968,-1210.499370
6239.313,2969,-1210.528291
6263.985,2970,-1210.563414
6290.988,2971,-1210.531104
6291.085,2972,-1210.534421
6291.159,2973,-1210.558077
6291.232,2974,-1210.551009
6309.963,2975,-1210.562332
6315.090,2976,-1210.626088
6315.240,2977,-1210.592768
6315.312,2978,-1210.583969
6315.376,2979,-1210.600485
6341.019,2980,-1210.600845
6341.092,2981,-1210.597383
6341.147,2982,-1210.594354
6366.767,2983,-1210.606976
6366.909,2984,-1210.628684
6390.946,2985,-1210.629838
6391.028,2986,-1210.592912
6391.090,2987,-1210.619525
6411.029,2988,-1210.641810
6411.135,2989,-1210.362988
6416.060,2990,-1210.456963
6416.188,2991,-1210.630992
6443.289,2992,-1210.640873
6443.391,2993,-1210.647219
6443.456,2994,-1210.669144
6469.187,2995,-1210.649383
6469.326,2996,-1210.655658
6500.797,2997,-1210.653350
6500.930,2998,-1210.654576
6501.000,2999,-1210.661211
6504.928,3000,-1210.634742
6505.002,3001,-1210.659552
6530.121,3002,-1210.658903
6530.581,3003,-1210.660490
6530.656,3004,-1210.639286
6556.993,3005,-1210.624285
6557.086,3006,-1210.638781
6586.572,3007,-1210.595003
6589.629,3008,-1210.550360
6589.727,3009,-1210.504924
6599.455,3010,-1210.635752
6599.611,3011,-1210.645344
6618.034,3012,-1210.653999
6618.132,3013,-1210.681982
6618.263,3014,-1210.721144
6618.385,3015,-1210.743646
6618.499,3016,-1210.745089
6647.536,3017,-1210.745305
6647.628,3018,-1210.739679
6668.947,3019,-1210.071833
6669.019,3020,-1210.548629
6669.071,3021,-1210.540984
6692.956,3022,2.219471
6693.054,3023,3.579036
6693.120,3024,6.461593
6698.147,3025,7.917945
6701.020,3026,4.429783
6722.436,3027,-1210.286323
6722.518,3028,-1210.637050
6722.582,3029,-1210.249180
6746.934,3030,-1210.331327
6747.012,3031,-1210.464319
6778.951,3032,-1210.528724
6779.037,3033,-1210.546105
6779.105,3034,-1210.513794
6787.678,3035,-1210.481845
6787.807,3036,-1210.442755
6787.913,3037,-1210.437418
6788.018,3038,-1210.351954
6811.990,3039,-1210.278606
6812.088,3040,-1210.097869
6812.202,3041,-1210.177780
6838.930,3042,0.294689
6839.017,3043,0.897337
6867.231,3044,1.340741
6867.337,3045,2.257695
6867.402,3046,2.347198
6874.973,3047,2.390544
6875.058,3048,2.575968
6899.945,3049,2.640301
6900.022,3050,2.786708
6900.079,3051,2.936216
6927.037,3052,3.049952
6927.122,3053,3.130944
6951.054,3054,3.093585
6951.216,3055,3.193834
6951.355,3056,3.045480
6968.497,3057,2.867123
6968.675,3058,2.090445
6975.308,3059,0.262162
6975.485,3060,-1210.067362
6975.547,3061,-1210.284448
7000.974,3062,-1210.436913
7001.052,3063,-1210.535215
7001.109,3064,-1210.574016
7001.164,3065,-1210.599908
7027.099,3066,-1210.591830
7027.243,3067,-1210.636401
7027.384,3068,-1210.650321
7056.991,3069,-1210.643613
7085.785,3070,-1210.653494
7085.870,3071,-1210.661211
7085.928,3072,-1210.655658
7107.190,3073,-1210.656379
7134.122,3074,-1210.695325
7136.900,3075,-1210.670803
7136.961,3076,-1210.687968
7137.018,3077,-1210.656956
7158.960,3078,-1210.659769
7178.332,3079,-1210.606543
7178.509,3080,-1210.600701
7180.622,3081,-1210.694603
7180.678,3082,-1210.680179
7186.280,3083,-1210.658038
7186.352,3084,-1210.684218
7186.409,3085,-1210.685732
7212.953,3086,-1210.697488
7213.017,3087,-1210.703979
7237.054,3088,-1210.713427
7237.263,3089,-1210.743935
7237.460,3090,-1210.720928
7262.966,3091,-1210.729943
7263.042,3092,-1210.734126
7278.281,3093,-1210.723668
7285.862,3094,-1210.739535
7285.924,3095,-1210.720711
7285.975,3096,-1210.757926
7286.024,3097,-1210.757349
7286.076,3098,-1210.761532
7286.126,3099,-1210.785188
7286.176,3100,-1210.791246
7312.063,3101,-1210.804949
7312.134,3102,-1210.738453
7337.754,3103,-1210.706720
7337.934,3104,-1210.773721
7338.246,3105,-1210.848006
7363.889,3106,-1210.820456
7363.970,3107,-1210.834880
7384.373,3108,-1210.840289
7384.526,3109,-1210.443476
7384.583,3110,-1210.780428
7408.394,3111,-1210.820311
7408.542,3112,-1210.753166
7408.669,3113,-1210.590893
7408.822,3114,-1210.611736
7436.386,3115,-1210.744007
7436.452,3116,-1210.830697
7436.500,3117,-1210.838847
7461.099,3118,-1210.837548
7461.169,3119,-1210.891712
7494.766,3120,-1210.884211
7494.966,3121,-1210.853487
7495.098,3122,-1210.841010
7495.223,3123,-1210.863729
7495.346,3124,-1210.737516
7497.904,3125,-1210.862719
7497.967,3126,-1210.937076
7523.126,3127,-1210.349501
7523.219,3128,2.547552
7523.285,3129,4.392351
7549.066,3130,7.472450
7549.145,3131,6.467291
7573.109,3132,2.087561
7573.171,3133,-1210.793482
7573.219,3134,-1210.544735
7592.988,3135,-1210.441096
7593.082,3136,-1210.526055
7597.866,3137,-1210.729294
7599.844,3138,-1210.783025
7599.921,3139,-1210.504274
7625.375,3140,-1210.769826
7625.551,3141,-1210.701094
7625.695,3142,-1210.706359
7651.683,3143,-1210.754248
7651.774,3144,-1210.584762
7676.100,3145,-1210.570915
7676.170,3146,-1210.632579
7676.208,3147,-1210.596013
7676.245,3148,-1210.446000
7676.282,3149,-1210.499514
7687.356,3150,-1210.392558
7687.494,3151,0.158018
7712.029,3152,0.823845
7712.095,3153,0.603153
7712.146,3154,1.854031
7737.947,3155,2.375542
7738.021,3156,2.633161
7762.094,3157,2.828827
7762.153,3158,2.806325
7762.191,3159,2.835750
7775.101,3160,2.941697
7775.252,3161,3.128276
7778.459,3162,2.944582
7778.633,3163,2.764638
7804.049,3164,2.282000
7828.321,3165,0.000938
7828.384,3166,-1210.379937
7828.430,3167,-1210.619381
7828.480,3168,-1210.710326
7855.091,3169,-1210.712057
7886.666,3170,-1210.741266
7886.759,3171,-1210.756700
7886.817,3172,-1210.994269
7886.871,3173,-1211.067472
7888.347,3174,-1211.044393
7890.051,3175,-1211.045475
7890.129,3176,-1211.088964
7915.431,3177,-1211.181064
7915.612,3178,-1211.149258
7945.020,3179,-1211.093652
7945.098,3180,-1211.051389
7945.155,3181,-1211.086729
7966.320,3182,-1211.168731
7966.486,3183,-1211.252464
7996.214,3184,-1211.152071
7996.310,3185,-1211.137070
7996.384,3186,-1211.207388
7996.435,3187,-1211.203710
7996.484,3188,-1211.168875
8000.874,3189,-1211.096826
8000.939,3190,-1211.040715
8026.201,3191,-1211.226428
8051.804,3192,-1211.192964
8051.968,3193,-1211.101514
8077.129,3194,-1211.199527
8077.301,3195,-1211.235516
8077.453,3196,-1211.286217
8088.082,3197,-1211.234290
8088.190,3198,-1211.201402
8111.031,3199,-1211.136709
8111.131,3200,-1211.114351
8111.207,3201,-1211.203421
8137.998,3202,-1211.101153
8138.106,3203,-1211.166135
8161.962,3204,-1211.267393
8162.030,3205,-1211.232631
8162.078,3206,-1211.207677
8189.098,3207,-1211.167793
8189.199,3208,-1211.179044
8213.139,3209,-1211.097403
8213.190,3210,-1210.972849
8215.132,3211,-1211.047278
8215.245,3212,-1211.170823
8215.343,3213,-1211.208470
8239.940,3214,-1211.209552
8240.020,3215,-1211.235732
8240.080,3216,-1211.272153
8240.138,3217,-1211.279293
8266.237,3218,-1211.344275
8266.326,3219,-1211.375720
8266.395,3220,-1211.397934
8295.269,3221,-1211.296026
8295.348,3222,-1211.301146
8295.407,3223,-1211.389928
8307.991,3224,-1211.182650
8308.092,3225,-1210.131478
8308.167,3226,2.868133
8308.228,3227,5.710663
8336.076,3228,7.174732
8336.150,3229,3.815306
8336.206,3230,-1210.626593
8360.332,3231,-1211.161591
8360.420,3232,-1210.927556
8360.462,3233,-1210.890918
8390.006,3234,-1211.157119
8390.103,3235,-1211.160076
8395.901,3236,-1211.122862
8395.972,3237,-1211.069996
8396.035,3238,-1211.048504
8396.098,3239,-1211.057231
8396.160,3240,-1211.021675
8447.865,3241,-1210.938807
8449.009,3242,-1210.874907
8449.529,3243,-1210.894885
8449.699,3244,-1210.869715
8461.242,3245,-1210.803146
8473.588,3246,-1210.716384
8473.655,3247,-1210.565145
8505.495,3248,-1210.413113
8509.407,3249,0.091090
8509.487,3250,1.137647
8510.873,3251,1.864416
8510.950,3252,2.433312
8536.276,3253,3.076276
8536.923,3254,3.252902
8562.225,3255,3.026368
8562.410,3256,3.058318
8562.476,3257,3.401905
8588.390,3258,3.429311
8588.558,3259,3.051178
8602.572,3260,2.635180
8602.777,3261,0.869210
8602.885,3262,-1210.194224
8625.206,3263,-1210.416430
8625.300,3264,-1210.622698
8625.365,3265,-1210.716312
8650.233,3266,-1210.818797
8650.318,3267,-1210.772855
8686.954,3268,-1210.713644
8687.045,3269,-1210.678232
8687.111,3270,-1210.588224
8687.178,3271,-1210.551081
8687.244,3272,-1210.562116
8687.851,3273,-1210.640873
8687.912,3274,-1210.576540
8713.008,3275,-1210.485090
8713.113,3276,-1210.448813
8713.198,3277,-1210.323321
8740.057,3278,-1210.391188
8740.147,3279,-1210.384985
8740.210,3280,-1210.302190
8740.270,3281,-1210.411815
8766.035,3282,-1210.330461
8766.156,3283,-1210.414699
8766.257,3284,-1210.325990
8792.004,3285,-1210.262378
8792.752,3286,-1210.175544
8792.819,3287,-1210.346977
8797.467,3288,-1210.421767
8797.539,3289,0.068443
8800.892,3290,0.912699
8800.960,3291,-1210.414050
8823.987,3292,-1210.471892
8850.046,3293,-1210.450472
8850.200,3294,-1210.507592
8850.329,3295,-1210.474055
8850.455,3296,-1210.572501
8880.832,3297,-1210.581156
8887.994,3298,-1210.676429
8888.226,3299,-1210.707369
8888.284,3300,-1210.778841
8888.341,3301,-1210.694603
8911.111,3302,-1210.712129
8911.330,3303,-1210.729005
8911.577,3304,-1210.665106
8937.898,3305,-1210.474344
8937.972,3306,-1210.541273
8961.043,3307,-1210.336880
8961.112,3308,-1210.360103
8961.163,3309,-1210.323826
8993.008,3310,-1210.468935
8993.111,3311,-1210.517184
8995.876,3312,-1210.455737
8995.952,3313,-1210.583175
9021.981,3314,-1210.673544
9022.063,3315,-1210.679602
9022.122,3316,-1210.780933
9049.037,3317,-1210.104216
9049.124,3318,-1210.281491
9049.186,3319,0.219178
9049.352,3320,-1210.633444
9049.425,3321,-1210.216149
9075.279,3322,2.604889
9075.430,3323,3.839828
9097.960,3324,6.690579
9098.032,3325,7.145739
9098.086,3326,3.024348
9100.843,3327,-1210.926114
9100.910,3328,-1211.060837
9127.022,3329,-1210.709965
9127.103,3330,-1210.760811
9127.163,3331,-1210.839640
9151.996,3332,-1210.931811
9152.070,3333,-1210.949698
9187.957,3334,-1210.920128
9188.034,3335,-1210.868200
9188.092,3336,-1210.881543
9192.901,3337,-1210.847141
9192.977,3338,-1210.808411
9193.040,3339,-1210.750642
9193.089,3340,-1210.771197
9218.048,3341,-1210.698354
9244.411,3342,-1210.605750
9244.697,3343,-1210.532185
9244.851,3344,-1210.447587
9244.956,3345,-1210.372797
9269.930,3346,-1210.305219
9296.058,3347,1.034945
9296.196,3348,2.041403
9296.306,3349,2.278755
9296.412,3350,2.471969
9302.929,3351,2.533849
9308.133,3352,2.559452
9308.215,3353,2.830125
9354.923,3354,2.894313
9355.047,3355,2.782597
9355.115,3356,2.640229
9355.180,3357,1.942957
9355.244,3358,-1210.098662
9386.362,3359,-1210.450327
9386.437,3360,-1210.650465
9391.405,3361,-1210.805166
9391.501,3362,-1210.900871
9391.584,3363,-1210.986408
9417.048,3364,-1211.018430
9417.113,3365,-1211.016410
9417.163,3366,-1211.063361
9417.212,3367,-1211.093148
9443.826,3368,-1211.063217
9468.037,3369,-1211.094734
9468.140,3370,-1211.094013
9469.839,3371,-1211.104254
9469.899,3372,-1211.074540
9500.112,3373,-1211.064083
9526.195,3374,-1211.114784
9526.278,3375,-1211.071150
9526.340,3376,-1211.077786
9526.406,3377,-1211.070573
9551.208,3378,-1211.057592
9576.984,3379,-1211.076560
9577.070,3380,-1211.084565
9577.132,3381,-1211.065741
9577.192,3382,-1211.093220
9598.074,3383,-1211.079733
9598.168,3384,-1211.089181
9598.225,3385,-1211.091705
9601.015,3386,-1211.131588
9601.116,3387,-1211.130795
9626.063,3388,-1211.057231
9626.137,3389,-1211.185968
9626.192,3390,-1211.139810
9652.001,3391,-1211.161158
9652.076,3392,-1211.100576
9681.197,3393,-1211.105985
9681.970,3394,-1211.104038
9682.114,3395,-1211.147311
9688.297,3396,-1211.014391
9688.359,3397,-1210.988860
9713.000,3398,-1211.020016
9713.087,3399,-1211.119183
9713.153,3400,-1211.091561
9737.952,3401,-1211.185319
9738.036,3402,-1211.167072
9764.369,3403,-1211.207244
9764.543,3404,-1211.209263
9764.600,3405,-1211.203566
9797.087,3406,-1211.231044
9797.242,3407,-1211.212076
9801.180,3408,-1211.195632
9801.395,3409,-1211.187194
9801.523,3410,-1211.007395
9826.910,3411,0.603947
9827.016,3412,3.317883
9827.076,3413,6.406997
9827.134,3414,7.060419
9852.485,3415,2.686170
9852.570,3416,-1211.036099
9852.632,3417,-1211.210345
9877.139,3418,-1210.791102
9877.264,3419,-1210.771629
9906.078,3420,-1210.861853
9906.183,3421,-1210.882624
9906.265,3422,-1210.844977
9913.526,3423,-1210.909742
9913.656,3424,-1210.897121
9928.045,3425,-1210.822836
9928.121,3426,-1210.763119
9928.278,3427,-1210.750137
9931.577,3428,-1210.694676
9931.685,3429,-1210.608851
9938.106,3430,-1210.532907
9938.216,3431,-1210.526055
9954.283,3432,-1210.365945
9960.018,3433,-1210.240598
9960.109,3434,0.375465
9978.221,3435,1.584007
9978.329,3436,2.145618
9996.022,3437,2.413983
9996.119,3438,2.567314
9996.194,3439,2.723529
10001.960,3440,2.889481
10002.105,3441,2.936504
10021.005,3442,3.087383
10021.092,3443,3.096614
10021.160,3444,2.985835
10043.051,3445,2.591402
10043.165,3446,0.610293
10063.122,3447,-1210.174462
10063.232,3448,-1210.332336
10063.367,3449,-1210.530887
10089.565,3450,-1210.736795
10089.648,3451,-1210.811657
10089.831,3452,-1210.893298
10089.890,3453,-1210.934191
10109.058,3454,-1210.967944
10116.076,3455,-1210.977825
10116.228,3456,-1210.971334
10136.328,3457,-1211.013237
10138.634,3458,-1210.997442
10138.822,3459,-1211.001986
10158.084,3460,-1210.985254
10158.211,3461,-1210.990807
10176.011,3462,-1211.001842
10176.167,3463,-1211.041436
10197.970,3464,-1210.973858
10198.044,3465,-1210.990374
10198.098,3466,-1211.047855
10223.096,3467,-1210.997154
10242.925,3468,-1210.980205
10243.077,3469,-1210.959650
10243.186,3470,-1210.999894
10243.291,3471,-1211.071944
10249.976,3472,-1210.999317
10250.109,3473,-1211.003140
10269.102,3474,-1211.027084
10269.213,3475,-1211.058818
10273.248,3476,-1211.148032
10293.002,3477,-1211.142118
10293.123,3478,-1211.127838
10311.041,3479,-1211.070285
10311.191,3480,-1211.056149
10314.224,3481,-1211.127550
10337.935,3482,-1211.077353
10338.016,3483,-1210.940178
10357.209,3484,-1210.965060
10357.380,3485,-1211.024343
10357.521,3486,-1211.129353
10372.135,3487,-1211.159211
10372.233,3488,-1211.159283
10385.507,3489,-1211.221596
10387.816,3490,-1211.258234
10392.893,3491,-1211.281313
10417.035,3492,-1211.257729
10417.109,3493,-1211.274461
10424.293,3494,-1211.269413
10424.401,3495,-1211.267105
10438.036,3496,-1211.299127
10450.959,3497,-1210.850098
10451.036,3498,1.937836
10466.024,3499,4.127954
10466.088,3500,7.294454
10478.189,3501,6.003837
10478.324,3502,0.531032
10493.016,3503,-1211.348170
10506.521,3504,-1211.182362
10506.639,3505,-1210.893298
10520.981,3506,-1210.998740
10521.049,3507,-1211.069275
10528.411,3508,-1211.044610
10554.398,3509,-1211.095095
10554.487,3510,-1211.075333
10558.095,3511,-1211.047639
10558.184,3512,-1210.983667
10573.344,3513,-1210.990086
10586.601,3514,-1210.991961
10586.677,3515,-1210.921137
10600.104,3516,-1210.889909
10600.192,3517,-1210.828894
10607.973,3518,-1210.766004
10632.486,3519,-1210.694820
10632.577,3520,-1210.618659
10639.844,3521,-1210.507159
10639.918,3522,-1210.376186
10651.939,3523,0.193358
10665.970,3524,1.116948
10681.362,3525,2.075516
10681.486,3526,2.334217
10681.561,3527,2.453938
10696.020,3528,2.548778
10696.129,3529,2.613183
10703.960,3530,2.539403
10728.560,3531,1.700123
10728.773,3532,0.040244
10740.309,3533,-1210.461578
10740.403,3534,-1210.750642
10748.007,3535,-1210.984028
10761.816,3536,-1211.152576
10761.923,3537,-1211.265446
10775.095,3538,-1211.376009
10775.239,3539,-1211.414522
10788.661,3540,-1211.454333
10807.112,3541,-1211.462771
10807.377,3542,-1211.459814
10813.340,3543,-1211.488230
10813.442,3544,-1211.541600
10827.127,3545,-1211.522415
10842.621,3546,-1211.531863
10842.753,3547,-1211.537705
10855.021,3548,-1211.531359
10855.142,3549,-1211.554149
10862.959,3550,-1211.563308
10893.397,3551,-1211.567636
10893.502,3552,-1211.560279
10899.530,3553,-1211.584079
10899.629,3554,-1211.623818
10936.991,3555,-1211.609466
10937.500,3556,-1211.603192
10937.571,3557,-1211.609971
10940.045,3558,-1211.620573
10950.794,3559,-1211.634060
10950.886,3560,-1211.642426
10950.945,3561,-1211.654903
10961.967,3562,-1211.692839
10977.115,3563,-1211.699041
10977.199,3564,-1211.707047
11001.353,3565,-1211.692695
11001.524,3566,-1211.722625
11001.657,3567,-1211.716062
11021.973,3568,-1211.734453
11022.056,3569,-1211.729765
11029.053,3570,-1211.772389
11029.174,3571,-1211.734381
11043.274,3572,-1211.734597
11055.979,3573,-1211.725366
11056.050,3574,-1211.772966
11070.459,3575,-1211.720822
11070.617,3576,-1211.667308
11078.083,3577,-1211.641200
11102.557,3578,-1211.720461
11102.672,3579,-1211.784145
11107.996,3580,-1211.777005
11108.074,3581,-1211.811263
11138.791,3582,-1211.855473
11140.542,3583,-1211.909853
11140.619,3584,-1211.919445
11152.101,3585,-1211.911079
11152.186,3586,-1211.904083
11164.979,3587,-1211.901270
11165.061,3588,-1211.916777
11172.902,3589,-1211.868960
11199.807,3590,-1211.514626
11203.168,3591,-1210.477806
11203.866,3592,3.084570
11203.924,3593,6.269533
11217.978,3594,6.042422
11231.105,3595,0.962463
11231.247,3596,-1211.743757
11244.976,3597,-1211.639325
11245.055,3598,-1211.446327
11252.974,3599,-1211.575785
11277.058,3600,-1211.640551
11277.131,3601,-1211.647474
11287.027,3602,-1211.671779
11287.100,3603,-1211.631824
11298.051,3604,-1211.595980
11310.962,3605,-1211.591580
11311.033,3606,-1211.523137
11325.390,3607,-1211.474310
11325.575,3608,-1211.411420
11349.011,3609,-1211.390649
11349.121,3610,-1211.343554
11349.204,3611,-1211.264220
11362.964,3612,-1211.211932
11363.039,3613,-1211.123366
11388.942,3614,-1211.028310
11389.035,3615,-1210.922364
11389.105,3616,-1210.790742
11403.985,3617,-1210.620823
11404.069,3618,-1210.399265
11427.018,3619,1.202556
11427.090,3620,2.012698
11427.138,3621,1.984643
11452.012,3622,2.049769
11452.114,3623,2.057558
11461.145,3624,0.956044
11461.264,3625,-1210.203239
11469.159,3626,-1210.674842
11484.182,3627,-1210.943639
11484.599,3628,-1211.139305
11508.031,3629,-1211.342616
11508.117,3630,-1211.459237
11508.177,3631,-1211.510011
11540.691,3632,-1211.527248
11540.798,3633,-1211.543331
11540.863,3634,-1211.548019
11540.925,3635,-1211.557611
11549.998,3636,-1211.543403
11562.975,3637,-1211.530854
11563.054,3638,-1211.569439
11611.036,3639,-1211.545350
11611.189,3640,-1211.499769
11611.301,3641,-1211.529411
11611.416,3642,-1211.495370
11611.462,3643,-1211.470776
11618.215,3644,-1211.477772
11618.346,3645,-1211.478349
11643.001,3646,-1211.455342
11643.085,3647,-1211.447265
11643.146,3648,-1211.436014
11661.020,3649,-1211.404929
11661.123,3650,-1211.379543
11674.973,3651,-1211.412069
11675.108,3652,-1211.392741
11686.075,3653,-1211.415820
11706.890,3654,-1211.412502
11706.954,3655,-1211.403559
11713.014,3656,-1211.405290
11713.059,3657,-1211.394544
11727.015,3658,-1211.351271
11740.982,3659,-1211.358771
11741.060,3660,-1211.356824
11755.085,3661,-1211.375143
11755.170,3662,-1211.340741
11762.988,3663,-1211.332447
11787.098,3664,-1211.331077
11787.323,3665,-1211.320980
11792.994,3666,-1211.330067
11793.076,3667,-1211.308070
11808.003,3668,-1211.313191
11821.015,3669,-1211.300425
11821.104,3670,-1211.267610
11836.080,3671,-1211.228880
11836.145,3672,-1211.242079
11849.051,3673,-1211.228159
11849.146,3674,-1211.194406
11862.059,3675,-1211.107572
11876.032,3676,-1211.037181
11876.203,3677,-1211.058818
11891.029,3678,-1211.099062
11891.121,3679,-1210.944144
11899.612,3680,-1211.085214
11922.097,3681,-1211.159716
11922.159,3682,-1211.200897
11928.189,3683,-1211.184309
11928.307,3684,-1211.178323
11943.009,3685,-1211.199960
11961.065,3686,-1211.153369
11961.149,3687,-1211.164692
11969.949,3688,-1211.167649
11970.096,3689,-1211.055933
11977.994,3690,0.751579
12002.992,3691,2.873470
12003.077,3692,5.357555
12007.952,3693,7.782356
12008.101,3694,4.983172
12022.023,3695,0.038801
12050.408,3696,-1211.128776
12050.560,3697,-1210.688257
12050.625,3698,-1210.625511
12050.690,3699,-1210.786414
12077.193,3700,-1210.812450
12077.253,3701,-1210.792400
12077.299,3702,-1210.826586
12091.945,3703,-1210.788578
12092.053,3704,-1210.759008
12105.983,3705,-1210.718476
12106.076,3706,-1210.668640
12115.146,3707,-1210.628468
12128.222,3708,-1210.547259
12128.316,3709,0.530094
12153.022,3710,1.388558
12153.112,3711,-1210.296276
12153.178,3712,0.322528
12177.182,3713,0.807113
12177.334,3714,1.870042
12186.882,3715,2.146628
12186.952,3716,2.275293
12197.661,3717,2.470671
12211.088,3718,2.622992
12211.193,3719,2.766153
12225.020,3720,2.911767
12225.098,3721,3.037691
12236.922,3722,3.086517
12258.112,3723,3.052115
12258.229,3724,2.764350
12263.041,3725,2.505361
12263.134,3726,0.383903
12289.002,3727,-1210.222207
12289.096,3728,-1210.439509
12289.168,3729,-1210.604307
12303.026,3730,-1210.741482
12303.127,3731,-1210.769971
12327.318,3732,-1210.788866
12327.479,3733,-1210.803940
12327.610,3734,-1210.800622
12352.064,3735,-1210.804373
12352.150,3736,-1210.836034
12358.263,3737,-1210.854353
12358.375,3738,-1210.830913
12372.477,3739,-1210.711264
12387.263,3740,-1210.890991
12387.442,3741,-1210.847790
12399.996,3742,-1210.862863
12400.080,3743,-1210.857310
12408.062,3744,-1210.841227
12437.393,3745,-1210.850530
12437.461,3746,-1210.836539
12437.856,3747,-1210.848583
12437.912,3748,-1210.827812
12451.972,3749,-1210.816777
12465.939,3750,-1210.830120
12466.019,3751,-1210.813243
12480.551,3752,-1210.851684
12490.915,3753,-1210.818580
12490.993,3754,-1210.831418
12503.018,3755,-1210.850675
12503.118,3756,-1210.835962
12527.275,3757,-1210.868417
12527.359,3758,-1210.867840
12551.815,3759,-1210.821321
12551.903,3760,-1210.823701
12551.968,3761,-1210.784251
12557.916,3762,-1210.792545
12557.984,3763,-1210.757277
12583.670,3764,-1210.650465
12586.583,3765,-1210.664096
12586.651,3766,-1210.746819
12607.007,3767,-1210.765499
12607.094,3768,-1210.772639
12616.065,3769,-1210.490427
12616.129,3770,-1210.490499
12624.050,3771,-1210.882841
12639.047,3772,-1210.880821
12639.160,3773,-1210.860339
12661.990,3774,-1210.817427
12662.072,3775,-1210.834880
12662.135,3776,-1210.821610
12686.991,3777,-1210.787208
12687.062,3778,-1210.343660
12697.321,3779,2.517550
12697.403,3780,4.053163
12720.279,3781,7.288612
12720.410,3782,7.277794
12720.512,3783,2.892005
12738.256,3784,-1210.687752
12738.329,3785,-1210.751147
12759.197,3786,-1210.320653
12759.369,3787,-1210.401790
12759.476,3788,-1210.463381
12773.196,3789,-1210.473262
12773.343,3790,-1210.462660
12797.470,3791,-1210.425013
12797.546,3792,-1210.390178
12797.593,3793,-1210.356209
12822.411,3794,-1210.236270
12822.589,3795,0.017021
12830.174,3796,0.139267
12830.248,3797,0.705205
12845.321,3798,1.224914
12857.110,3799,1.894924
12857.268,3800,2.225529
12870.117,3801,2.259643
12870.200,3802,2.366527
12878.059,3803,2.563780
12902.198,3804,2.690209
12902.350,3805,2.743074
12910.942,3806,2.989874
12911.016,3807,3.135704
12920.163,3808,3.294083
12937.118,3809,3.415320
12950.975,3810,3.476335
12951.049,3811,3.428374
12951.122,3812,3.265523
12976.383,3813,3.003938
12976.440,3814,2.250267
12976.481,3815,0.308104
12991.115,3816,-1210.110635
12991.190,3817,-1210.284376
13005.154,3818,-1210.364863
13005.291,3819,-1210.438427
13012.965,3820,-1210.472108
13037.227,3821,-1210.478166
13037.339,3822,-1210.497711
13043.023,3823,-1210.502183
13043.127,3824,-1210.501822
13056.987,3825,-1210.535792
13071.097,3826,-1210.509828
13071.157,3827,-1210.511775
13087.116,3828,-1210.538244
13087.185,3829,-1210.023584
13093.977,3830,-1210.503120
13118.006,3831,-1210.486460
13118.079,3832,-1210.504419
13123.940,3833,-1210.491076
13124.009,3834,-1210.439509
13143.416,3835,-1210.442610
13150.953,3836,-1210.457323
13151.341,3837,-1210.450472
13164.909,3838,-1210.475642
13164.971,3839,-1210.443043
13191.145,3840,-1210.442250
13191.223,3841,-1210.461218
13191.280,3842,-1210.466699
13203.175,3843,-1210.494682
13203.393,3844,-1210.476508
13227.975,3845,-1210.484729
13228.066,3846,-1210.485234
13228.143,3847,-1210.466194
13244.004,3848,-1210.483503
13244.138,3849,-1210.470449
13267.978,3850,-1210.482061
13268.061,3851,-1210.514804
13268.120,3852,-1210.469800
13292.149,3853,-1210.452275
13292.364,3854,-1210.391837
13298.727,3855,-1210.448092
13298.898,3856,-1210.347194
13313.036,3857,-1210.320509
13327.186,3858,-1210.296492
13327.277,3859,-1210.088710
13340.979,3860,0.978041
13341.081,3861,-1210.426311
13348.027,3862,-1210.476652
13373.435,3863,-1210.513939
13373.526,3864,-1210.526416
13377.946,3865,-1210.507808
13402.934,3866,-1210.513001
13403.063,3867,-1210.544374
13403.136,3868,-1210.530382
13403.272,3869,-1210.518050
13419.074,3870,-1210.481845
13419.228,3871,1.199238
13444.074,3872,3.134550
13444.196,3873,4.781880
13444.273,3874,8.078055
13459.026,3875,7.768076
13459.103,3876,3.560140
13482.693,3877,-1210.342866
13490.366,3878,-1210.081353
13490.468,3879,0.879740
13509.033,3880,0.074357
13509.140,3881,-1210.216004
13512.915,3882,-1210.235621
13512.988,3883,-1210.277885
13527.001,3884,-1210.231799
13540.964,3885,-1210.088854
13541.057,3886,-1210.123616
13555.961,3887,0.075367
13556.040,3888,0.366955
13563.010,3889,1.136132
13588.040,3890,2.150883
13588.197,3891,1.238473
13592.982,3892,1.985941
13593.119,3893,2.280919
13608.164,3894,2.547913
13621.012,3895,2.530099
13621.107,3896,2.627968
13639.185,3897,2.863445
13639.311,3898,2.887101
13657.993,3899,3.114428
13658.087,3900,3.279370
13658.161,3901,3.385245
13673.088,3902,3.494942
13673.180,3903,3.569876
13699.011,3904,3.566992
13699.103,3905,3.394621
13699.172,3906,3.103322
13714.211,3907,2.656672
13714.289,3908,0.493384
13739.539,3909,0.094119
13739.641,3910,-1210.067506
13739.720,3911,-1210.202229
13762.115,3912,-1210.236415
13762.275,3913,-1210.290001
13771.010,3914,-1210.296853
13771.099,3915,-1210.326206
13779.106,3916,-1210.339621
13793.968,3917,-1210.325990
13794.060,3918,-1210.354911
13817.529,3919,0.089503
13817.685,3920,-1210.342073
13817.832,3921,-1210.347554
13838.280,3922,-1210.337024
13847.874,3923,-1210.347121
13847.984,3924,-1210.346833
13848.035,3925,-1210.335438
13863.958,3926,-1210.356353
13875.973,3927,-1210.332336
13876.058,3928,-1210.309618
13891.248,3929,-1210.322889
13891.340,3930,-1210.355415
13902.993,3931,-1210.374672
13903.100,3932,-1210.355271
13918.070,3933,-1210.361978
13931.266,3934,-1210.340847
13931.367,3935,-1210.387510
13944.926,3936,-1210.369335
13945.004,3937,-1210.364647
13953.573,3938,-1210.375609
13977.305,3939,-1210.377701
13977.511,3940,-1210.351088
13988.112,3941,-1210.353973
13988.199,3942,-1210.357940
13997.049,3943,-1210.404458
14010.998,3944,-1210.392053
14011.107,3945,-1210.382100
14025.092,3946,-1210.380586
14025.220,3947,-1210.397318
14042.563,3948,-1210.391476
14057.106,3949,-1210.184271
14057.177,3950,0.978907
14063.093,3951,-1210.404170
14063.198,3952,-1210.375465
14078.083,3953,-1210.377052
14091.000,3954,-1210.425734
14091.119,3955,-1210.401645
14106.193,3956,-1210.401213
14106.436,3957,-1210.377052
14129.000,3958,-1210.394217
14129.081,3959,-1210.414267
14129.150,3960,-1210.393496
14145.391,3961,-1210.423787
14145.455,3962,-1210.417656
14171.452,3963,-1210.408064
14174.541,3964,-1210.394650
14177.634,3965,-1210.419243
14193.395,3966,-1210.421984
14193.481,3967,-1210.386716
14204.528,3968,-1210.381956
14204.621,3969,-1210.372652
14212.164,3970,-1210.374383
14226.791,3971,-1210.318489
14226.874,3972,-1210.196820
14243.344,3973,-1210.216004
14243.431,3974,-1210.369046
14253.291,3975,-1210.366450
14272.106,3976,-1210.333418
14272.227,3977,-1210.368397
14277.858,3978,-1210.391188
14277.932,3979,0.089864
14305.901,3980,1.179982
14306.003,3981,-1210.458261
14306.069,3982,-1210.471243
14319.982,3983,-1210.473046
14320.062,3984,-1210.474488
14343.965,3985,-1210.062097
14344.035,3986,2.645854
14344.086,3987,3.730275
14359.115,3988,6.447601
14359.215,3989,8.541797
14387.917,3990,5.442731
14388.034,3991,1.019151
14388.124,3992,-1210.349862
14399.019,3993,1.155316
14399.079,3994,0.333635
14422.103,3995,-1210.171649
14422.262,3996,-1210.201364
14422.353,3997,-1210.219178
14447.215,3998,-1210.164798
14447.370,3999,-1210.136310
14453.048,4000,0.003462
14453.190,4001,0.019401
14466.986,4002,0.387077
14481.987,4003,0.638421
14482.071,4004,1.067256
14496.324,4005,1.715701
14496.408,4006,1.758902
14504.003,4007,2.241324
14521.993,4008,2.382105
14522.072,4009,2.461800
14537.768,4010,2.600490
14537.916,4011,2.636623
14558.046,4012,2.834019
14558.249,4013,2.912199
14558.309,4014,3.108586
14573.443,4015,3.253118
14573.596,4016,3.362743
14598.003,4017,3.468113
14598.096,4018,3.548601
14598.165,4019,3.508285
14613.711,4020,3.403780
14613.899,4021,3.168880
14638.138,4022,2.666192
14638.226,4023,0.907723
14638.290,4024,0.141647
14662.179,4025,-1210.013992
14662.389,4026,-1210.146551
14668.178,4027,-1210.200642
14668.275,4028,-1210.266994
14684.124,4029,-1210.252714
14695.999,4030,-1210.267643
14696.097,4031,-1210.286467
14709.120,4032,-1210.285457
14709.300,4033,-1210.276875
14723.264,4034,-1210.278822
14737.080,4035,-1210.273918
14737.158,4036,-1210.269951
14757.972,4037,-1210.274856
14758.136,4038,-1210.271610
14758.248,4039,-1210.141863
14785.080,4040,0.418522
14788.400,4041,-1210.299016
14790.912,4042,-1210.280193
14790.979,4043,-1210.266417
14816.237,4044,-1210.304425
14816.462,4045,-1210.301324
14816.641,4046,-1210.305291
14837.596,4047,-1210.304498
14837.674,4048,-1210.285530
14842.900,4049,-1210.306228
14842.978,4050,-1210.320292
14857.062,4051,-1210.328442
14871.136,4052,-1210.336303
14871.225,4053,-1210.337169
14887.942,4054,-1210.350223
14888.039,4055,-1210.352891
14892.897,4056,-1210.343083
14917.023,4057,-1210.343876
14917.140,4058,-1210.339981
14927.072,4059,-1210.391765
14927.239,4060,-1210.360248
14937.038,4061,-1210.371715
14948.090,4062,-1210.374744
14948.212,4063,-1210.313441
14972.110,4064,-1210.342289
14972.198,4065,-1210.361618
14972.292,4066,-1210.341640
14997.104,4067,-1210.332986
14997.191,4068,-1210.358589
15007.089,4069,0.093037
15007.223,4070,0.857743
15030.272,4071,-1210.355488
15030.372,4072,-1210.361041
15030.448,4073,-1210.374167
15045.039,4074,-1210.371643
15045.181,4075,-1210.316975
15059.299,4076,-1210.333058
15059.396,4077,-1210.351665
15071.990,4078,-1210.343010
15089.645,4079,-1210.320220
15089.777,4080,-1210.158740
15101.522,4081,-1210.270384
15105.403,4082,-1210.336231
15107.884,4083,-1210.263893
15142.073,4084,-1210.318056
15142.160,4085,-1210.401645
15142.220,4086,-1210.414122
15142.279,4087,-1210.425445
15148.889,4088,-1210.418450
15163.964,4089,-1210.441961
15164.050,4090,-1210.434028
15189.507,4091,-1210.418955
15189.587,4092,-1210.435903
15189.648,4093,0.542787
15218.006,4094,2.889337
15218.148,4095,4.154639
15218.252,4096,7.296257
15218.355,4097,8.128685
15243.028,4098,4.228852
15243.141,4099,1.066823
15243.231,4100,0.365224
15258.195,4101,0.921065
15258.348,4102,0.228698
15290.577,4103,-1210.074141
15290.661,4104,-1210.140565
15290.719,4105,-1210.148571
15298.190,4106,0.019184
15298.390,4107,-1210.085608
15323.037,4108,0.175328
15323.150,4109,0.599980
15323.239,4110,0.888394
15347.018,4111,1.100071
15347.120,4112,1.342760
15355.937,4113,1.844222
15356.003,4114,2.209013
15364.055,4115,2.327293
15378.158,4116,2.494543
15378.425,4117,2.625732
15402.961,4118,2.712783
15403.045,4119,2.755984
15403.109,4120,2.981941
15428.507,4121,3.098922
15428.587,4122,3.235881
15438.477,4123,3.372119
15438.571,4124,3.475469
15444.931,4125,3.601682
15457.998,4126,3.629160
15458.091,4127,3.546004
15484.517,4128,3.387048
15488.278,4129,3.007183
15505.989,4130,2.436196
15506.071,4131,0.395515
15506.131,4132,0.046591
15512.995,4133,-1210.120010
15513.086,4134,-1210.209369
15541.634,4135,-1210.266417
15541.717,4136,-1210.295338
15541.787,4137,-1210.307094
15553.069,4138,-1210.340270
15553.178,4139,-1210.336159
15578.816,4140,-1210.340991
15578.910,4141,-1210.346400
15578.995,4142,-1210.399049
15597.000,4143,-1210.400924
15597.107,4144,-1210.410733
15612.166,4145,-1210.415348
15612.255,4146,-1210.395876
15619.041,4147,-1210.409362
15651.993,4148,-1210.385779
15652.114,4149,-1210.389962
15652.210,4150,-1210.383903
15660.915,4151,-1210.420902
15661.003,4152,-1210.409939
15688.332,4153,-1210.397174
15688.487,4154,-1210.377629
15710.064,4155,-1210.425878
15710.177,4156,-1210.431143
15710.265,4157,-1210.442033
15739.113,4158,-1210.444630
15739.205,4159,-1210.214634
15756.956,4160,-1210.162706
15757.056,4161,-1210.452563
15757.137,4162,-1210.447803
15757.215,4163,-1210.493168
15763.618,4164,-1210.477301
15789.506,4165,-1210.514444
15791.587,4166,-1210.506150
15813.113,4167,-1210.513650
15813.254,4168,-1210.512929
15813.380,4169,-1210.514299
15842.988,4170,-1210.500668
15843.097,4171,-1210.501173
15868.030,4172,-1210.468574
15868.110,4173,-1210.463526
15868.170,4174,-1210.488768
15895.041,4175,-1210.430638
15895.157,4176,-1210.389313
15895.258,4177,-1210.390755
15895.341,4178,-1210.482133
15921.266,4179,-1210.468502
15921.398,4180,-1210.469945
15921.448,4181,-1210.512064
15928.152,4182,-1210.609139
15928.236,4183,-1210.604235
15928.299,4184,-1210.596157
15940.155,4185,-1210.611519
15941.946,4186,-1210.582599
15959.532,4187,-1210.615847
15959.614,4188,-1210.603225
15990.421,4189,0.177275
15990.560,4190,2.441389
15990.663,4191,3.472584
16008.965,4192,6.101923
16009.035,4193,8.298387
16038.258,4194,5.224202
16038.340,4195,0.423859
16038.400,4196,-1210.652629
16063.030,4197,-1210.242473
16063.134,4198,-1210.170928
16063.213,4199,-1210.301036
16063.290,4200,-1210.365296
16100.221,4201,-1210.349646
16115.835,4202,-1210.366162
16115.917,4203,-1210.318850
16115.978,4204,-1210.322167
16116.039,4205,-1210.294617
16150.750,4206,-1210.247089
16150.832,4207,-1210.120010
16173.789,4208,0.023007
16173.905,4209,0.550577
16173.978,4210,0.917459
16198.102,4211,1.229169
16237.689,4212,2.206345
16237.867,4213,2.322605
16237.978,4214,2.542864
16238.045,4215,2.621910
16244.894,4216,2.768749
16245.132,4217,2.931600
16245.260,4218,3.079449
16245.389,4219,3.214100
16245.459,4220,3.321706
16267.999,4221,3.432773
16268.091,4222,3.432340
16294.393,4223,3.386471
16294.483,4224,3.193834
16294.555,4225,2.808849
16320.849,4226,0.874114
16320.934,4227,0.076593
16347.974,4228,-1210.137969
16348.060,4229,-1210.297646
16348.124,4230,-1210.405756
16354.043,4231,-1210.450977
16354.123,4232,-1210.477878
16379.191,4233,-1210.534710
16405.070,4234,-1210.498649
16405.150,4235,-1210.533267
16405.206,4236,-1210.553966
16405.259,4237,-1210.562404
16436.577,4238,-1210.544663
16442.909,4239,-1210.573151
16442.981,4240,-1210.590965
16443.045,4241,-1210.595653
16443.106,4242,-1210.589811
16468.160,4243,-1210.571203
16468.267,4244,-1210.565361
16468.311,4245,-1210.577189
16494.071,4246,-1210.565722
16494.221,4247,-1210.558438
16518.261,4248,-1210.559736
16518.415,4249,-1210.481628
16518.462,4250,-1210.253796
16539.074,4251,-1210.551514
16539.233,4252,-1210.586493
16546.983,4253,-1210.571997
16547.119,4254,-1210.578992
16571.144,4255,-1210.604956
16596.162,4256,-1210.605100
16596.331,4257,-1210.635392
16596.453,4258,-1210.643613
16596.498,4259,-1210.627098
16622.082,4260,-1210.631569
16641.067,4261,-1210.643541
16641.420,4262,-1210.663591
16641.469,4263,-1210.651547
16641.516,4264,-1210.654432
16668.724,4265,-1210.685732
16668.962,4266,-1210.681189
16669.009,4267,-1210.662149
16696.082,4268,-1210.677078
16696.179,4269,-1210.666620
16717.015,4270,-1210.693377
16717.101,4271,-1210.688112
16717.164,4272,-1210.685444
16744.931,4273,-1210.709388
16744.998,4274,-1210.694026
16751.923,4275,-1210.688401
16752.020,4276,-1210.667414
16752.110,4277,-1210.678448
16753.933,4278,-1210.656163
16753.990,4279,0.073059
16786.568,4280,0.104432
16786.680,4281,-1210.639214
16786.778,4282,-1210.697921
16806.204,4283,-1210.706143
16806.283,4284,-1210.694964
16831.446,4285,-1210.742709
16831.504,4286,-1210.770836
16831.546,4287,-1210.784395
16854.553,4288,-1210.809133
16854.642,4289,-1210.798242
16880.207,4290,-1210.783457
16880.462,4291,-1210.792689
16880.512,4292,-1210.763335
16905.181,4293,0.924527
16905.261,4294,3.030407
16905.327,4295,5.045918
16905.383,4296,8.131065
16936.960,4297,6.610741
16937.092,4298,1.923628
16937.207,4299,-1210.765787
16942.942,4300,-1210.432369
16943.003,4301,-1210.354766
16944.890,4302,-1210.487686
16944.961,4303,-1210.587719
16945.030,4304,-1210.591974
16970.129,4305,-1210.602793
16970.294,4306,-1210.582959
16970.433,4307,-1210.530382
16970.765,4308,-1210.509611
16996.192,4309,0.545816
17021.128,4310,0.446289
17021.305,4311,-1210.433307
17021.456,4312,-1210.371715
17021.574,4313,-1210.296276
17052.346,4314,0.057192
17076.009,4315,0.655658
17076.063,4316,1.075189
17076.101,4317,2.022290
17076.137,4318,2.168120
17102.062,4319,2.454876
17124.972,4320,2.582531
17125.041,4321,2.697637
17136.479,4322,2.848660
17136.576,4323,2.946096
17136.638,4324,3.088825
17157.993,4325,3.155538
17158.071,4326,3.159144
17184.190,4327,3.034590
17184.252,4328,2.804882
17184.302,4329,1.733804
17209.374,4330,0.046591
17209.552,4331,-1210.190401
17237.502,4332,-1210.412391
17237.578,4333,-1210.519853
17237.636,4334,-1210.585844
17237.691,4335,-1210.631064
17237.754,4336,-1210.684002
17237.809,4337,-1210.679746
17237.863,4338,-1210.712778
17237.917,4339,-1210.699147
17237.971,4340,-1210.668640
17263.181,4341,-1210.718764
17263.356,4342,-1210.726193
17263.438,4343,-1210.728356
17289.972,4344,-1210.707008
17290.073,4345,-1210.770764
17319.112,4346,-1210.736001
17321.362,4347,-1210.735713
17321.469,4348,-1210.743935
17326.264,4349,-1210.747757
17326.441,4350,-1210.750858
17326.502,4351,-1210.752806
17353.264,4352,-1210.727347
17353.350,4353,-1210.733188
17353.404,4354,-1210.753815
17353.454,4355,-1210.754609
17378.342,4356,-1210.756700
17403.012,4357,-1210.763480
17403.102,4358,-1210.780284
17403.167,4359,-1210.761677
17403.230,4360,-1210.766220
17434.032,4361,-1210.786054
17437.094,4362,-1210.796511
17437.139,4363,-1210.804445
17457.031,4364,-1210.801848
17457.103,4365,-1210.800911
17457.154,4366,-1210.794925
17457.203,4367,-1210.835385
17485.879,4368,-1210.824927
17508.058,4369,-1210.706792
17508.162,4370,-1210.689916
17508.237,4371,-1210.835818
17508.309,4372,-1210.825288
17543.051,4373,-1210.780500
17543.125,4374,-1210.787280
17543.180,4375,-1210.823917
17551.002,4376,-1210.755618
17551.125,4377,-1210.679314
17577.454,4378,-1210.681622
17577.662,4379,-1210.762470
17577.816,4380,-1210.782520
17603.715,4381,-1210.795141
17603.795,4382,-1210.827163
17603.848,4383,-1210.878297
17628.040,4384,-1210.897770
17628.137,4385,-1210.914430
17659.223,4386,-1210.914719
17659.306,4387,-1210.917748
17659.365,4388,-1210.931018
17659.419,4389,-1210.896255
17659.474,4390,-1210.832861
17661.985,4391,0.856012
17662.068,4392,3.029902
17688.032,4393,5.297838
17688.154,4394,7.960930
17688.251,4395,5.612217
17711.992,4396,0.565578
17712.074,4397,-1210.909309
17737.987,4398,-1210.496125
17738.072,4399,0.444413
17738.139,4400,-1210.494610
17756.994,4401,-1210.658831
17757.078,4402,-1210.665899
17760.842,4403,-1210.677727
17760.893,4404,-1210.643902
17760.942,4405,-1210.628396
17788.046,4406,-1210.587142
17788.137,4407,-1210.560529
17788.207,4408,-1210.515886
17788.264,4409,-1210.452275
17813.021,4410,-1210.387221
17837.978,4411,-1210.331471
17838.068,4412,0.035412
17838.140,4413,0.518266
17838.201,4414,0.894597
17868.051,4415,1.932788
17875.139,4416,2.149802
17875.234,4417,2.425306
17875.291,4418,2.569982
17875.347,4419,2.696916
17901.984,4420,2.849814
17902.070,4421,2.999466
17902.133,4422,3.069064
17926.256,4423,3.110317
17926.339,4424,3.109452
17951.243,4425,2.974224
17951.397,4426,2.486465
17951.461,4427,0.709605
17971.146,4428,-1210.124121
17971.273,4429,0.648806
17976.013,4430,-1210.523170
17976.099,4431,-1210.651475
17976.164,4432,-1210.714076
18002.005,4433,-1210.727202
18002.103,4434,-1210.740905
18028.023,4435,-1210.732612
18028.114,4436,-1210.765787
18028.186,4437,-1210.805310
18057.391,4438,-1210.799108
18057.478,4439,-1210.794492
18062.565,4440,-1210.777688
18062.664,4441,-1210.784611
18065.994,4442,-1210.780861
18091.983,4443,-1210.787857
18092.077,4444,-1210.812162
18092.153,4445,-1210.789083
18092.225,4446,-1210.789660
18116.958,4447,-1210.782087
18117.038,4448,-1210.789155
18117.097,4449,-1210.796439
18148.852,4450,-1210.793194
18148.933,4451,-1210.789155
18168.126,4452,-1210.780861
18168.223,4453,-1210.773432
18168.334,4454,-1210.778481
18176.055,4455,-1210.750281
18176.127,4456,-1210.782664
18176.180,4457,-1210.805526
18176.232,4458,-1210.800983
18202.046,4459,-1210.734919
18227.104,4460,-1210.737804
18227.266,4461,-1210.845265
18227.395,4462,-1210.837188
18227.520,4463,-1210.822114
18258.141,4464,-1210.810286
18284.558,4465,-1210.838991
18284.663,4466,-1210.853776
18284.771,4467,-1210.820456
18284.856,4468,-1210.846564
18307.992,4469,-1210.813243
18333.387,4470,-1210.800983
18333.477,4471,-1210.843823
18333.543,4472,-1210.767807
18333.607,4473,-1210.697921
18361.161,4474,-1210.702681
18361.346,4475,-1210.773360
18361.502,4476,-1210.774154
18369.101,4477,-1210.786558
18369.255,4478,-1210.819013
18372.997,4479,-1210.890918
18373.118,4480,-1210.933398
18373.219,4481,-1210.936571
18376.881,4482,-1210.919839
18376.945,4483,-1210.921354
18401.973,4484,-1210.918469
18402.085,4485,-1210.911473
18427.433,4486,-1210.856372
18427.583,4487,-1210.039234
18427.787,4488,2.713793
18454.039,4489,4.520800
18454.155,4490,7.670640
18462.009,4491,6.508472
18469.946,4492,1.903795
18470.233,4493,-1210.930585
18470.306,4494,-1210.628828
18470.365,4495,-1210.440807
18494.182,4496,-1210.575603
18520.115,4497,-1210.636473
18520.290,4498,-1210.664817
18520.433,4499,-1210.674265
18520.572,4500,-1210.631064
18548.099,4501,-1210.608418
18549.556,4502,-1210.576901
18549.613,4503,-1210.526848
18579.071,4504,-1210.512713
18580.755,4505,-1210.420974
18580.816,4506,0.049692
18580.985,4507,0.312792
18583.355,4508,1.067616
18583.629,4509,1.620285
18583.860,4510,1.612928
18583.912,4511,2.052149
18583.962,4512,2.154489
18611.526,4513,2.436846
18629.655,4514,2.531181
18629.768,4515,2.767235
18629.842,4516,2.883928
18629.913,4517,3.046995
18655.719,4518,3.177967
18676.024,4519,3.241651
18676.128,4520,3.167005
18676.208,4521,3.055721
18676.284,4522,2.847578
18682.408,4523,1.801670
18682.638,4524,0.074141
18686.641,4525,-1210.221630
18708.000,4526,-1210.431359
18708.097,4527,-1210.578415
18736.449,4528,-1210.619597
18736.883,4529,-1210.699219
18736.959,4530,-1210.696334
18761.009,4531,-1210.684723
18761.099,4532,-1210.726986
18761.156,4533,-1210.742636
18761.210,4534,-1210.764417
18761.265,4535,-1210.749776
18794.054,4536,-1210.727419
18794.187,4537,-1210.725904
18794.290,4538,-1210.748406
18794.363,4539,-1210.728645
18800.283,4540,-1210.723885
18800.487,4541,-1210.737876
18800.612,4542,-1210.759080
18827.075,4543,-1210.694892
18827.168,4544,-1210.732035
18827.239,4545,-1210.719918
18853.207,4546,-1210.695469
18853.299,4547,-1210.726409
18853.358,4548,-1210.710614
18886.672,4549,-1210.693377
18889.057,4550,-1210.661427
18889.134,4551,-1210.731746
18889.199,4552,-1210.710975
18889.264,4553,-1210.757133
18889.325,4554,-1210.776317
18889.378,4555,-1210.770331
18916.035,4556,-1210.770836
18916.122,4557,-1210.781654
18940.907,4558,-1210.751219
18940.983,4559,-1210.728068
18941.052,4560,-1210.731385
18941.109,4561,-1210.754248
18941.166,4562,-1210.746459
18968.140,4563,-1210.630271
18968.219,4564,-1210.564929
18976.111,4565,-1210.625006
18976.189,4566,-1210.715591
18976.252,4567,-1210.749272
18979.635,4568,-1210.737732
18979.802,4569,-1210.756916
19002.985,4570,-1210.807762
19003.073,4571,-1210.826370
19003.128,4572,-1210.846852
19029.071,4573,-1210.845410
19030.175,4574,-1210.826802
19060.071,4575,-1210.820239
19060.244,4576,-1210.815407
19060.339,4577,-1210.559087
19068.768,4578,2.363354
19068.858,4579,3.926662
19091.131,4580,7.096408
19091.238,4581,7.334914
19091.310,4582,2.939750
19117.068,4583,-1210.695902
19117.209,4584,-1210.817571
19147.997,4585,-1210.425445
19148.094,4586,-1210.428907
19148.168,4587,-1210.513434
19153.891,4588,-1210.551081
19153.957,4589,-1210.570771
19155.878,4590,-1210.539253
19156.020,4591,-1210.501894
19181.981,4592,-1210.471098
19182.158,4593,-1210.434677
19182.265,4594,-1210.386933
19205.939,4595,-1210.288414
19206.010,4596,0.093037
19231.371,4597,0.252786
19231.540,4598,0.619741
19231.632,4599,1.441495
19252.969,4600,1.645383
19253.038,4601,2.232092
19278.818,4602,2.341717
19278.996,4603,2.557721
19279.184,4604,2.689199
19305.010,4605,2.828322
19330.765,4606,2.979921
19331.130,4607,3.119549
19331.245,4608,3.238045
19350.964,4609,3.284707
19357.928,4610,3.309301
19358.015,4611,3.190517
19358.083,4612,2.935278
19358.147,4613,2.461944
19386.306,4614,0.262306
19386.410,4615,-1210.133569
19389.388,4616,-1210.371138
19410.338,4617,-1210.503553
19410.499,4618,-1210.574088
19439.976,4619,-1210.624213
19440.064,4620,-1210.652989
19440.126,4621,-1210.648590
19442.904,4622,-1210.681766
19442.964,4623,-1210.671597
19447.908,4624,-1210.705205
19447.982,4625,-1210.719341
19473.323,4626,-1210.707225
19500.121,4627,-1210.729294
19500.285,4628,-1210.714004
19500.417,4629,-1210.722442
19500.543,4630,-1210.714220
19524.016,4631,-1210.704628
19525.889,4632,-1210.690637
19525.939,4633,-1210.712850
19551.140,4634,-1210.689916
19551.414,4635,-1210.698209
19551.560,4636,-1210.677438
19577.018,4637,-1210.696262
19577.121,4638,-1210.677366
19577.200,4639,-1210.649383
19577.278,4640,-1210.507592
19603.102,4641,-1210.735641
19603.262,4642,-1210.737083
19603.333,4643,-1210.749993
19628.108,4644,-1210.773072
19628.247,4645,-1210.772927
19653.116,4646,-1210.768889
19653.270,4647,-1210.768384
19653.378,4648,-1210.776678
19662.041,4649,-1210.765283
19662.160,4650,-1210.749776
19666.960,4651,-1210.718548
19667.047,4652,-1210.755907
19667.124,4653,-1210.712490
19670.934,4654,-1210.620318
19671.063,4655,-1210.680179
19695.023,4656,-1210.702032
19695.184,4657,-1210.743069
19720.336,4658,-1210.789588
19720.440,4659,-1210.796800
19720.541,4660,-1210.830913
19747.254,4661,-1210.885221
19747.371,4662,-1210.900655
19770.987,4663,-1210.895679
19771.069,4664,-1210.885149
19771.131,4665,-1210.907218
19789.424,4666,-1210.876206
19789.501,4667,-1210.724029
19795.910,4668,1.917858
19796.006,4669,3.477416
19796.071,4670,6.333361
19822.040,4671,8.154937
19822.143,4672,4.707307
19822.257,4673,-1210.375754
19848.043,4674,-1210.870003
19848.136,4675,-1210.428258
19873.545,4676,-1210.476724
19873.724,4677,-1210.609500
19874.959,4678,-1210.632723
19875.051,4679,-1210.651042
19875.123,4680,-1210.659841
19893.271,4681,-1210.611880
19913.052,4682,-1210.583175
19917.381,4683,-1210.561395
19917.974,4684,-1210.521367
19922.241,4685,-1210.494682
19926.598,4686,-1210.444846
19926.658,4687,-1210.356569
19952.364,4688,-1210.302262
19952.659,4689,0.347915
19952.950,4690,0.722875
19981.718,4691,1.838525
19981.933,4692,2.128021
19999.661,4693,2.322533
19999.778,4694,2.440812
19999.854,4695,2.564573
20001.332,4696,2.798752
20001.412,4697,2.949702
20027.084,4698,3.022690
20027.218,4699,3.118179
20027.491,4700,3.144359
20053.525,4701,3.064160
20053.607,4702,2.802719
20081.954,4703,2.112947
20082.041,4704,0.062746
20082.110,4705,-1210.243699
20082.178,4706,-1210.417873
20082.379,4707,-1210.587575
20094.121,4708,-1210.678232
20094.269,4709,-1210.689555
20117.996,4710,-1210.736939
20118.146,4711,-1210.741627
20142.974,4712,-1210.733693
20145.857,4713,-1210.761172
20145.927,4714,-1210.780789
20169.124,4715,-1210.787785
20169.271,4716,-1210.750642
20184.871,4717,-1210.765643
20186.155,4718,-1210.781438
20186.234,4719,-1210.797521
20215.221,4720,-1210.786054
20215.409,4721,-1210.770475
20215.472,4722,-1210.766220
20241.320,4723,-1210.775163
20241.469,4724,-1210.763335
20264.105,4725,-1210.776822
20264.185,4726,-1210.764850
20264.245,4727,-1210.783818
20286.139,4728,-1210.771701
20286.225,4729,-1210.734559
20286.292,4730,-1210.611447
20286.358,4731,-1210.796800
20291.879,4732,-1210.789948
20316.008,4733,-1210.801127
20316.113,4734,-1210.790453
20316.193,4735,-1210.808411
20316.241,4736,-1210.803435
20342.991,4737,-1210.806536
20343.089,4738,-1210.821177
20373.076,4739,-1210.826370
20373.160,4740,-1210.820311
20373.224,4741,-1210.818869
20379.793,4742,-1210.819518
20380.810,4743,-1210.845987
20380.933,4744,-1210.839352
20407.063,4745,-1210.823124
20407.175,4746,-1210.791607
20407.258,4747,-1210.766004
20407.320,4748,-1210.804084
20432.298,4749,-1210.743358
20457.032,4750,-1210.663807
20457.122,4751,-1210.681694
20457.191,4752,-1210.740905
20457.258,4753,-1210.775019
20476.974,4754,-1210.789083
20487.603,4755,-1210.816705
20487.691,4756,-1210.881903
20508.420,4757,-1210.914574
20508.584,4758,-1210.922219
20508.692,4759,-1210.635969
20537.279,4760,-1210.599547
20539.182,4761,-1210.925032
20558.282,4762,-1210.906785
20558.365,4763,-1210.853848
20558.427,4764,0.708379
20558.490,4765,2.894457
20558.546,4766,5.004376
20587.934,4767,7.955088
20588.025,4768,6.089806
20592.014,4769,1.335404
20592.111,4770,-1210.922291
20592.187,4771,-1210.487759
20619.019,4772,-1210.452058
20619.121,4773,-1210.582526
20619.200,4774,-1210.650321
20619.279,4775,-1210.690781
20646.286,4776,-1210.670082
20671.054,4777,-1210.654792
20671.200,4778,-1210.632002
20671.310,4779,-1210.586998
20671.393,4780,-1210.560818
20702.081,4781,-1210.510549
20727.995,4782,-1210.469007
20728.080,4783,-1210.391260
20728.142,4784,-1210.041903
20728.202,4785,0.506943
20753.090,4786,0.904622
20783.685,4787,1.764960
20783.931,4788,2.054529
20788.506,4789,2.213629
20788.603,4790,2.419392
20788.671,4791,2.550509
20788.754,4792,2.711845
20788.820,4793,2.822336
20795.149,4794,2.961747
20795.262,4795,3.068126
20816.108,4796,3.141258
20816.225,4797,3.132314
20816.276,4798,2.989009
20842.333,4799,2.731318
20842.418,4800,1.162168
20871.998,4801,-1210.101042
20872.078,4802,-1210.324547
20872.140,4803,-1210.498793
20878.964,4804,-1210.602143
20879.086,4805,-1210.685660
20879.194,4806,-1210.715230
20879.289,4807,-1210.740617
20904.150,4808,-1210.748839
20905.859,4809,-1210.730448
20905.935,4810,-1210.763840
20931.057,4811,-1210.774298
20931.140,4812,-1210.765427
20956.182,4813,-1210.773216
20956.338,4814,-1210.755402
20956.410,4815,-1210.795790
20988.537,4816,-1210.773793
20988.632,4817,-1210.761100
20990.892,4818,-1210.772278
20990.964,4819,-1210.578704
20991.030,4820,-1210.785549
21017.009,4821,-1210.762614
21017.107,4822,-1210.771413
21042.982,4823,-1210.783818
21043.080,4824,-1210.782664
21043.156,4825,-1210.808267
21072.005,4826,-1210.805454
21072.078,4827,-1210.785405
21075.891,4828,-1210.793122
21075.948,4829,-1210.826081
21080.905,4830,-1210.799973
21106.069,4831,-1210.821033
21106.214,4832,-1210.825360
21131.109,4833,-1210.841587
21132.040,4834,-1210.832788
21135.713,4835,-1210.830048
21157.027,4836,-1210.868561
21157.172,4837,-1210.841948
21186.704,4838,-1210.852478
21186.783,4839,-1210.851252
21186.837,4840,-1210.851612
21189.889,4841,-1210.840289
21189.958,4842,-1210.859401
21190.021,4843,-1210.870724
21190.084,4844,-1210.859185
21216.063,4845,-1210.854569
21216.162,4846,-1210.873249
21216.208,4847,-1210.876206
21244.986,4848,-1210.881110
21245.212,4849,-1210.713139
21267.180,4850,-1210.634021
21267.345,4851,-1210.865532
21267.475,4852,-1210.842958
21290.005,4853,-1210.760234
21290.120,4854,-1210.730664
21314.111,4855,-1210.725039
21314.201,4856,-1210.816850
21316.094,4857,-1210.811296
21341.993,4858,-1210.851179
21342.081,4859,-1210.875052
21366.036,4860,-1210.901665
21366.096,4861,-1210.934913
21366.147,4862,-1210.924744
21397.160,4863,-1210.937437
21397.325,4864,-1210.936427
21402.501,4865,-1210.934047
21402.588,4866,-1210.943135
21402.645,4867,-1210.785693
21429.479,4868,1.810830
21429.643,4869,3.259032
21430.903,4870,6.032181
21431.031,4871,7.889601
21454.323,4872,4.664899
21486.518,4873,-1210.234684
21486.591,4874,-1210.889476
21486.646,4875,-1210.456818
21486.699,4876,-1210.551442
21492.038,4877,-1210.665034
21492.162,4878,-1210.721433
21492.278,4879,-1210.170496
21493.850,4880,-1210.455015
21493.915,4881,-1210.648446
21520.356,4882,-1210.651763
21520.405,4883,-1210.640368
21545.993,4884,-1210.566515
21546.229,4885,-1210.535864
21546.304,4886,-1210.515093
21571.519,4887,-1210.449246
21571.741,4888,-1210.246584
21589.066,4889,0.029570
21620.027,4890,0.582238
21620.220,4891,1.295954
21620.351,4892,1.967694
21620.477,4893,2.291304
21644.096,4894,2.414848
21677.372,4895,2.545028
21677.437,4896,2.673044
21677.485,4897,2.807623
21677.529,4898,2.916166
21684.809,4899,3.015261
21708.187,4900,3.075771
21708.354,4901,3.033147
21739.401,4902,2.907151
21739.474,4903,2.445644
21739.525,4904,0.469945
21739.574,4905,-1210.178213
21739.624,4906,-1210.405251
21764.984,4907,-1210.568607
21765.048,4908,-1210.673977
21773.185,4909,-1210.654360
21773.235,4910,-1210.770836
21773.277,4911,-1210.787857
21798.095,4912,-1210.779923
21798.247,4913,-1210.762109
21823.132,4914,-1210.801920
21823.198,4915,-1210.801199
21823.244,4916,-1210.803507
21855.025,4917,-1210.801704
21855.114,4918,-1210.815263
21880.901,4919,-1210.815696
21881.300,4920,-1210.808123
21881.353,4921,-1210.802930
21907.247,4922,-1210.762181
21907.334,4923,-1210.796944
21931.067,4924,-1210.816489
21931.156,4925,-1210.827884
21931.224,4926,-1210.785332
21961.064,4927,-1210.834519
21961.220,4928,-1210.820311
21966.591,4929,-1210.838342
21966.782,4930,-1210.834591
21966.876,4931,-1210.823196
21993.040,4932,-1210.848222
21993.118,4933,-1210.837116
21993.175,4934,-1210.868705
21993.231,4935,-1210.840217
22017.989,4936,-1210.864594
22018.033,4937,-1210.891784
22018.069,4938,-1210.861421
22043.144,4939,-1210.866037
22043.233,4940,-1210.725976
22069.362,4941,-1210.916305
22069.525,4942,-1210.926330
22069.644,4943,-1210.908228
22079.794,4944,-1210.901953
22080.348,4945,-1210.899717
22103.246,4946,-1210.913060
22103.412,4947,-1210.913565
22103.534,4948,-1210.897842
22130.322,4949,-1210.924167
22130.418,4950,-1210.914286
22130.491,4951,-1210.928422
22130.563,4952,-1210.929792
22162.215,4953,-1210.897554
22162.416,4954,-1210.888755
22162.579,4955,-1210.888755
22168.036,4956,-1210.889909
22168.120,4957,-1210.792689
22168.177,4958,-1210.799540
22196.204,4959,-1210.859401
22196.318,4960,-1210.882624
22196.484,4961,-1210.901448
22196.655,4962,-1210.918902
22220.963,4963,-1210.952943
22221.069,4964,-1211.037974
22221.132,4965,-1211.028022
22247.047,4966,-1211.024776
22247.198,4967,-1210.992033
22272.361,4968,-1211.015689
22272.460,4969,-1210.805310
22272.497,4970,-1210.892505
22275.339,4971,-1210.446361
22275.407,4972,2.409079
22280.615,4973,4.000082
22280.694,4974,7.167087
22281.136,4975,6.848526
22306.398,4976,2.613544
22306.538,4977,-1210.971190
22306.659,4978,-1210.789804
22306.787,4979,-1210.561395
22334.605,4980,-1210.672751
22335.030,4981,-1210.781654
22335.089,4982,-1210.787135
22366.061,4983,-1210.799540
22366.123,4984,-1210.788866
22366.167,4985,-1210.761172
22396.043,4986,-1210.721793
22396.135,4987,-1210.708090
22396.203,4988,-1210.601278
22396.268,4989,-1210.614188
22418.753,4990,-1210.572790
22446.124,4991,-1210.480042
22446.232,4992,-1210.349285
22446.317,4993,0.242978
22446.398,4994,0.531825
22473.149,4995,1.529051
22473.226,4996,2.052726
22473.282,4997,2.159177
22473.335,4998,2.371792
22473.388,4999,2.530676
22483.841,5000,2.668356
22484.264,5001,2.763196
22507.404,5002,2.874335
22531.564,5003,2.982806
22531.672,5004,2.976460
22531.733,5005,2.895972
22531.791,5006,2.689993
22559.282,5007,1.875018
22566.253,5008,-1210.094912
22566.404,5009,-1210.402511
22566.447,5010,-1210.580723
22566.490,5011,-1210.715591
22592.401,5012,-1210.785405
22592.530,5013,-1210.832788
22592.649,5014,-1210.878081
22619.188,5015,-1210.897409
22619.282,5016,-1210.889909
22643.991,5017,-1210.899645
22644.074,5018,-1210.904838
22644.134,5019,-1210.911185
22676.089,5020,-1210.882985
22676.161,5021,-1210.897337
22702.157,5022,-1210.936860
22702.407,5023,-1210.941043
22702.597,5024,-1210.923085
22726.142,5025,-1210.905415
22726.269,5026,-1210.924311
22726.365,5027,-1210.912266
22726.457,5028,-1210.895751
22726.550,5029,-1210.889476
22753.277,5030,-1210.806320
22753.366,5031,-1210.908660
22753.426,5032,-1210.914142
22753.484,5033,-1210.898852
22788.148,5034,-1210.921137
22788.296,5035,-1210.898203
22788.402,5036,-1210.939096
22792.946,5037,-1210.949121
22793.021,5038,-1210.950058
22818.158,5039,-1210.941692
22843.739,5040,-1210.958064
22843.833,5041,-1210.945442
22843.892,5042,-1210.971118
22843.951,5043,-1210.964338
22875.038,5044,-1210.969964
22879.538,5045,-1210.986119
22879.707,5046,-1210.981647
22902.939,5047,-1210.963256
22903.003,5048,-1210.984677
22904.845,5049,-1210.987345
22904.904,5050,-1210.982152
22904.960,5051,-1210.993115
22935.070,5052,-1210.966502
22938.864,5053,-1210.977104
22955.181,5054,-1210.981143
22955.375,5055,-1211.015545
22955.515,5056,-1210.964338
22987.033,5057,-1210.989437
22987.108,5058,-1210.987417
23011.127,5059,-1210.755907
23011.299,5060,-1210.883778
23041.554,5061,-1211.003428
23041.644,5062,-1210.967367
23041.703,5063,-1210.923373
23061.960,5064,-1210.979989
23062.036,5065,-1210.961958
23062.090,5066,-1210.881254
23090.369,5067,-1210.818653
23090.450,5068,-1210.936427
23105.932,5069,-1210.932965
23106.000,5070,-1210.960155
23106.053,5071,-1211.009559
23113.917,5072,-1211.020088
23113.978,5073,-1211.045115
23114.030,5074,-1211.086368
23114.081,5075,-1211.066174
23140.041,5076,-1211.071295
23164.725,5077,-1211.043672
23165.168,5078,-1211.082401
23165.304,5079,-1211.010857
23165.431,5080,0.271249
23191.365,5081,2.665327
23191.441,5082,4.683795
23191.512,5083,7.610130
23207.971,5084,5.693353
23208.094,5085,1.021603
23213.794,5086,-1211.082618
23213.903,5087,-1210.757710
23239.528,5088,-1210.580146
23262.982,5089,0.171938
23263.091,5090,-1210.684651
23263.168,5091,-1210.801560
23263.233,5092,-1210.788073
23295.743,5093,-1210.785549
23303.221,5094,-1210.748334
23303.336,5095,-1210.715230
23303.396,5096,-1210.675058
23303.452,5097,-1210.662221
23325.035,5098,-1210.604812
23325.128,5099,-1210.492374
23325.191,5100,-1210.475137
23352.342,5101,-1210.227111
23353.196,5102,0.329668
23353.592,5103,0.841587
23378.797,5104,1.555231
23382.344,5105,1.975916
23383.539,5106,2.204253
23384.114,5107,2.303637
23400.538,5108,2.540196
23400.683,5109,2.684079
23400.744,5110,2.764494
23402.492,5111,2.895323
23402.566,5112,2.970257
23435.251,5113,2.989442
23435.439,5114,2.886957
23435.545,5115,2.625227
23458.192,5116,1.663197
23460.549,5117,-1210.070751
23478.180,5118,-1210.329668
23478.304,5119,-1210.038801
23478.377,5120,-1210.721721
23510.113,5121,-1210.762542
23510.264,5122,-1210.822691
23516.322,5123,-1210.855218
23516.490,5124,-1210.874691
23541.269,5125,-1210.898708
23568.136,5126,-1210.905631
23568.266,5127,-1210.929576
23568.371,5128,-1210.942846
23568.473,5129,-1210.926474
23594.052,5130,-1210.948544
23605.450,5131,-1210.928494
23605.553,5132,-1210.928061
23608.068,5133,-1210.934552
23608.141,5134,-1210.946164
23614.867,5135,-1210.948327
23614.927,5136,-1210.933903
23614.999,5137,-1210.902963
23640.385,5138,-1210.880461
23640.552,5139,-1210.917315
23666.011,5140,-1210.939240
23666.098,5141,-1210.928133
23666.161,5142,-1210.951573
23689.779,5143,-1210.949698
23689.862,5144,-1210.939673
23714.078,5145,-1210.975517
23714.145,5146,-1210.983234
23714.196,5147,-1210.991745
23724.050,5148,-1210.997586
23724.206,5149,-1210.978186
23727.081,5150,-1211.012804
23727.224,5151,-1211.000255
23750.979,5152,-1211.012083
23751.065,5153,-1210.996793
23751.130,5154,-1211.025858
23777.020,5155,-1210.993403
23777.115,5156,-1211.049947
23806.137,5157,-1211.021242
23806.225,5158,-1210.997154
23806.287,5159,-1210.979484
23812.994,5160,-1211.022540
23813.082,5161,-1210.909742
23841.115,5162,-1210.900366
23841.194,5163,-1210.948255
23841.251,5164,-1210.968882
23863.063,5165,-1211.000255
23863.142,5166,-1211.018646
23889.535,5167,-1211.046990
23889.612,5168,-1211.103966
23889.670,5169,-1211.131660
23921.249,5170,-1211.143705
23921.423,5171,-1211.131733
23928.559,5172,-1211.110601
23928.769,5173,-1211.123366
23952.213,5174,-1211.097475
23978.105,5175,-1210.997154
23978.176,5176,1.347665
23978.227,5177,3.159504
23978.277,5178,6.059731
24005.823,5179,7.477354
24023.977,5180,3.654836
24024.057,5181,-1210.790381
24024.112,5182,-1211.187050
24024.171,5183,-1210.774154
24030.065,5184,-1210.729366
24055.181,5185,-1210.850170
24055.269,5186,-1210.863801
24079.934,5187,-1210.862070
24080.034,5188,-1210.870869
24083.993,5189,-1210.825432
24108.087,5190,-1210.815551
24108.254,5191,-1210.787063
24108.385,5192,-1210.724606
24108.513,5193,-1210.708811
24131.955,5194,-1210.672174
24132.082,5195,-1210.622482
24132.146,5196,-1210.546033
24156.968,5197,-1210.330389
24157.049,5198,0.055894
24182.060,5199,0.459054
24182.163,5200,1.563236
24182.236,5201,2.068088
24208.111,5202,2.253152
24208.194,5203,2.373667
24240.857,5204,2.541278
24241.169,5205,2.648595
24241.491,5206,2.776971
24249.351,5207,2.880826
24249.432,5208,2.877292
24249.489,5209,2.831784
24249.546,5210,2.573516
24273.114,5211,0.999534
24301.233,5212,-1210.231078
24301.314,5213,-1210.514371
24301.373,5214,-1210.723813
24301.430,5215,-1210.889837
24325.259,5216,-1210.991240
24351.189,5217,-1211.039056
24351.351,5218,-1211.084854
24351.460,5219,-1211.094157
24351.528,5220,-1211.109303
24359.079,5221,-1211.127261
24359.240,5222,-1211.128776
24359.330,5223,-1211.171976
24363.077,5224,-1211.184670
24363.162,5225,-1211.194190
24387.923,5226,-1211.200320
24388.005,5227,-1211.179117
24388.061,5228,-1211.182001
24413.157,5229,-1211.198806
24413.242,5230,-1211.183011
24442.374,5231,-1211.212942
24442.460,5232,-1211.203133
24442.519,5233,-1211.221957
24464.091,5234,-1211.200753
24464.184,5235,-1211.208975
24469.090,5236,-1211.237463
24469.167,5237,-1211.237174
24472.079,5238,-1211.252464
24497.068,5239,-1211.238761
24497.161,5240,-1211.256359
24497.235,5241,-1211.313479
24497.363,5242,-1211.301868
24520.727,5243,-1211.323216
24548.216,5244,-1211.318311
24548.448,5245,-1211.335765
24548.540,5246,-1211.341174
24548.606,5247,-1211.339010
24569.609,5248,-1211.366272
24569.765,5249,-1211.369878
24569.882,5250,-1211.371465
24571.970,5251,-1211.386755
24572.042,5252,-1211.381418
24572.153,5253,-1211.397717
24572.229,5254,-1211.409473
24572.293,5255,-1211.395049
24598.013,5256,-1211.411276
24598.118,5257,-1211.424402
24623.130,5258,-1211.451881
24623.217,5259,-1211.422743
24623.278,5260,-1211.390072
24655.083,5261,-1211.390000
24655.184,5262,-1211.423825
24662.003,5263,-1211.349901
24662.093,5264,-1211.316436
24662.161,5265,-1211.330211
24687.483,5266,-1211.417695
24687.590,5267,-1211.435293
24687.675,5268,-1211.455054
24687.742,5269,-1211.466305
24713.501,5270,-1211.549317
24738.332,5271,-1211.573478
24738.420,5272,-1211.573405
24738.485,5273,-1211.576290
24738.546,5274,-1211.562587
24766.092,5275,-1211.599586
24773.136,5276,-1211.597422
24773.268,5277,-1211.491980
24773.313,5278,-1210.652773
24773.355,5279,2.327437
24798.616,5280,4.865541
24798.791,5281,7.467401
24798.861,5282,4.889414
24822.997,5283,-1210.576324
24823.081,5284,-1211.626992
24853.977,5285,-1211.202340
24854.051,5286,-1211.188781
24855.873,5287,-1211.302589
24860.980,5288,-1211.395049
24861.071,5289,-1211.413079
24861.144,5290,-1211.396419
24861.212,5291,-1211.366777
24887.435,5292,-1211.346078
24887.554,5293,-1211.330500
24887.653,5294,-1211.314994
24913.059,5295,-1211.248353
24913.148,5296,-1211.215466
24939.172,5297,-1211.152215
24939.356,5298,-1211.105625
24939.515,5299,-1210.592479
24958.183,5300,-1210.980566
24958.308,5301,-1210.927268
24958.409,5302,-1210.816777
24965.958,5303,-1210.703474
24966.058,5304,-1210.546466
24992.429,5305,-1210.076810
25004.348,5306,1.014968
25016.073,5307,1.894491
25016.187,5308,2.141580
25016.266,5309,2.231948
25047.601,5310,2.234256
25049.749,5311,2.145691
25071.988,5312,1.786669
25072.109,5313,-1210.084815
25072.178,5314,-1210.559231
25072.242,5315,-1210.886014
25072.306,5316,-1211.127982
25098.929,5317,-1211.267393
25099.006,5318,-1211.347665
25099.065,5319,-1211.467964
25124.184,5320,-1211.521334
25124.399,5321,-1211.553572
25126.842,5322,-1211.550831
25126.989,5323,-1211.561433
25151.142,5324,-1211.580401
25151.250,5325,-1211.546576
25151.303,5326,-1211.596124
25178.993,5327,-1211.591219
25180.113,5328,-1211.607447
25180.852,5329,-1211.627208
25187.625,5330,-1211.606077
25187.737,5331,-1211.578238
25187.837,5332,-1211.597206
25187.958,5333,-1211.629372
25213.017,5334,-1211.577877
25213.101,5335,-1211.588839
25213.165,5336,-1211.596629
25238.340,5337,-1211.582132
25238.472,5338,-1211.588984
25263.949,5339,-1211.620934
25264.051,5340,-1211.590354
25264.116,5341,-1211.608240
25291.070,5342,-1211.602470
25291.195,5343,-1211.630959
25296.553,5344,-1211.617255
25296.650,5345,-1211.622376
25323.827,5346,-1211.618121
25323.961,5347,-1211.625694
25324.063,5348,-1211.615813
25347.987,5349,-1211.629155
25348.116,5350,-1211.631247
25348.248,5351,-1211.625549
25372.961,5352,-1211.600307
25373.025,5353,-1211.574343
25403.000,5354,-1211.595258
25403.100,5355,-1211.611125
25403.163,5356,-1211.646970
25430.270,5357,-1211.629300
25430.697,5358,-1211.598937
25453.955,5359,-1211.576795
25454.034,5360,-1211.604201
25455.932,5361,-1211.637882
25481.244,5362,-1211.618554
25482.015,5363,-1211.568213
25497.946,5364,-1211.617039
25498.010,5365,-1211.628074
25498.056,5366,-1211.551769
25498.100,5367,-1211.516141
25498.144,5368,-1211.519891
25503.019,5369,-1211.630021
25503.174,5370,-1211.584945
25506.751,5371,-1211.622881
25506.834,5372,-1211.667019
25506.895,5373,-1211.707552
25534.707,5374,-1211.739141
25534.813,5375,-1211.723707
25557.078,5376,-1211.736761
25557.218,5377,-1211.734886
25557.330,5378,-1211.740006
25584.576,5379,-1211.746714
25584.674,5380,-1211.592373
25608.360,5381,-1210.522810
25608.543,5382,2.410016
25608.671,5383,5.248363
25625.988,5384,7.317172
25626.068,5385,4.074151
25626.129,5386,-1211.171760
25626.189,5387,-1211.668606
25654.918,5388,-1211.247921
25655.072,5389,-1211.234939
25655.196,5390,-1211.401179
25678.002,5391,-1211.470344
25678.083,5392,-1211.491836
25704.020,5393,-1211.462194
25704.125,5394,-1211.446111
25704.206,5395,-1211.399953
25723.109,5396,-1211.358122
25723.206,5397,-1211.338505
25723.272,5398,-1211.296963
25723.334,5399,-1211.254123
25723.435,5400,-1211.184454
25732.882,5401,-1211.150556
25733.029,5402,-1211.081752
25733.173,5403,-1210.999173
25733.255,5404,-1210.920344
25758.320,5405,-1210.827379
25758.490,5406,-1210.718115
25758.548,5407,-1210.397895
25783.866,5408,0.726842
25784.070,5409,1.700340
25807.523,5410,2.014069
25807.775,5411,2.182256
25808.016,5412,2.298661
25835.288,5413,2.334577
25835.397,5414,2.283948
25835.458,5415,1.857781
25858.072,5416,-1210.077170
25858.287,5417,-1210.430927
25884.627,5418,-1210.784900
25885.115,5419,-1211.067256
25885.172,5420,-1211.259965
25885.226,5421,-1211.382644
25885.279,5422,-1211.470776
25902.985,5423,-1211.518593
25903.091,5424,-1211.541528
25909.922,5425,-1211.536623
25910.022,5426,-1211.541167
25910.114,5427,-1211.565472
25911.863,5428,-1211.565688
25911.917,5429,-1211.585882
25926.941,5430,-1211.595907
25927.014,5431,-1211.583070
25927.068,5432,-1211.594898
25935.027,5433,-1211.573694
25936.548,5434,-1211.559197
25936.654,5435,-1211.562371
25936.723,5436,-1211.586243
25948.954,5437,-1211.587686
25955.946,5438,-1211.567491
25956.001,5439,-1211.569799
25956.051,5440,-1211.559847
25956.100,5441,-1211.583791
25974.007,5442,-1211.579392
25975.840,5443,-1211.554870
25975.914,5444,-1211.578093
25981.097,5445,-1211.576074
25981.218,5446,-1211.575569
25996.979,5447,-1211.579031
26002.036,5448,-1211.578454
26002.178,5449,-1211.588046
26022.267,5450,-1211.624179
26022.330,5451,-1211.627208
26041.019,5452,-1211.623963
26041.119,5453,-1211.622448
26041.195,5454,-1211.639902
26042.911,5455,-1211.631319
26043.000,5456,-1211.633339
26062.035,5457,-1211.649999
26062.160,5458,-1211.630598
26085.552,5459,-1211.640118
26087.362,5460,-1211.645671
26087.501,5461,-1211.641705
26106.999,5462,-1211.645383
26107.083,5463,-1211.641560
26107.145,5464,-1211.634420
26130.138,5465,-1211.637594
26130.792,5466,-1211.626992
26138.766,5467,-1211.648196
26138.893,5468,-1211.635502
26153.909,5469,-1211.626559
26178.119,5470,-1211.638026
26178.195,5471,-1211.644662
26178.252,5472,-1211.636151
26178.385,5473,-1211.620789
26199.013,5474,-1211.621871
26205.105,5475,-1211.601749
26205.271,5476,-1211.603624
26222.082,5477,-1211.605572
26222.176,5478,-1211.539292
26246.061,5479,-1211.432191
26246.176,5480,-1211.538931
26246.264,5481,-1211.580690
26261.026,5482,-1211.604923
26261.143,5483,-1211.610764
26274.215,5484,-1211.654975
26274.300,5485,-1211.688944
26286.695,5486,-1211.696012
26307.189,5487,-1211.717360
26307.316,5488,-1211.699041
26313.185,5489,-1211.706109
26313.231,5490,-1211.701205
26327.394,5491,-1211.692767
26343.097,5492,-1211.389856
26343.179,5493,0.850026
26354.036,5494,3.112409
26354.114,5495,6.271841
26363.076,5496,6.828043
26387.039,5497,2.523536
26387.145,5498,-1211.517006
26393.075,5499,-1211.463997
26393.173,5500,-1211.197796
26407.097,5501,-1211.310522
26421.295,5502,-1211.408319
26421.385,5503,-1211.432913
26436.609,5504,-1211.451376
26436.766,5505,-1211.421012
26466.296,5506,-1211.414017
26466.352,5507,-1211.386466
26466.393,5508,-1211.352930
26473.534,5509,-1211.198517
26473.614,5510,-1211.285712
26499.091,5511,-1211.216259
26499.247,5512,-1211.177602
26499.372,5513,-1211.063001
26513.076,5514,-1211.015689
26513.169,5515,-1211.012371
26562.047,5516,-1210.957126
26562.556,5517,-1210.841010
26562.851,5518,-1210.678304
26562.997,5519,-1210.156504
26563.096,5520,1.104254
26570.000,5521,1.766187
26570.084,5522,1.974762
26578.911,5523,2.193940
26602.082,5524,2.317917
26602.144,5525,2.307171
26608.871,5526,2.393140
26608.952,5527,2.213196
26618.006,5528,1.019295
26644.417,5529,-1210.400131
26644.498,5530,-1210.743646
26651.934,5531,-1210.979340
26652.129,5532,-1211.173635
26658.869,5533,-1211.290184
26674.727,5534,-1211.377884
26674.882,5535,-1211.419065
26698.071,5536,-1211.434932
26698.150,5537,-1211.469262
26721.065,5538,-1211.471714
26721.140,5539,-1211.434139
26721.193,5540,-1211.506837
26727.988,5541,-1211.469478
26728.072,5542,-1211.454837
26753.115,5543,-1211.497822
26753.182,5544,-1211.471209
26753.222,5545,-1211.476402
26767.956,5546,-1211.453900
26768.101,5547,-1211.484768
26792.094,5548,-1211.488663
26792.171,5549,-1211.461473
26792.232,5550,-1211.476907
26817.297,5551,-1211.468180
26817.467,5552,-1211.488663
26823.038,5553,-1211.456208
26823.078,5554,-1211.453395
26837.080,5555,-1211.465511
26852.978,5556,-1211.466665
26853.064,5557,-1211.451520
26865.121,5558,-1211.516141
26865.288,5559,-1211.489961
26873.201,5560,-1211.491620
26897.135,5561,-1211.503303
26897.313,5562,-1211.502149
26904.187,5563,-1211.499481
26904.320,5564,-1211.520180
26917.086,5565,-1211.512823
26931.556,5566,-1211.516574
26931.624,5567,-1211.531431
26944.144,5568,-1211.508640
26944.266,5569,-1211.489600
26958.316,5570,-1211.507054
26958.494,5571,-1211.530132
26972.470,5572,-1211.513977
27000.135,5573,-1211.499264
27000.323,5574,-1211.522488
27000.488,5575,-1211.558909
27000.622,5576,-1211.514121
27010.139,5577,-1211.522704
27023.173,5578,-1211.499914
27023.236,5579,-1211.516357
27041.990,5580,-1211.531070
27042.084,5581,-1211.492846
27049.316,5582,-1211.493134
27063.118,5583,-1211.492629
27063.187,5584,-1211.468829
27087.209,5585,-1211.405362
27087.270,5586,-1211.384375
27087.322,5587,-1211.437240
27112.054,5588,-1211.496019
27112.134,5589,-1211.476113
27117.989,5590,-1211.510515
27118.080,5591,-1211.534604
27137.954,5592,-1211.591869
27145.998,5593,-1211.607519
27146.080,5594,-1211.551408
27158.971,5595,-1211.559558
27159.054,5596,-1211.549028
27186.618,5597,-1211.560640
27188.771,5598,-1211.614154
27188.879,5599,-1210.506150
27201.008,5600,1.863551
27201.102,5601,3.388779
27222.032,5602,6.481282
27222.148,5603,6.084108
27222.255,5604,0.916233
27247.993,5605,-1211.575208
27248.152,5606,-1211.523497
27256.084,5607,-1211.144065
27256.175,5608,-1211.178900
27264.138,5609,-1211.256359
27278.252,5610,-1211.266961
27278.421,5611,-1211.267249
27302.001,5612,-1211.295809
27302.095,5613,-1211.276481
27302.164,5614,-1211.207677
27326.986,5615,-1211.221668
27327.060,5616,-1211.170246
27337.314,5617,-1211.106490
27337.423,5618,-1211.061270
27343.931,5619,-1211.000183
27359.913,5620,-1210.932893
27360.078,5621,-1210.864666
27383.486,5622,-1210.753599
27383.642,5623,-1210.654792
27407.032,5624,-1210.423354
27407.176,5625,0.559447
27407.296,5626,1.635286
27413.944,5627,1.947861
27414.030,5628,2.179588
27437.984,5629,2.310344
27463.170,5630,2.472546
27463.351,5631,2.578565
27463.483,5632,2.661072
27463.611,5633,2.622992
27468.053,5634,2.494759
27468.188,5635,1.649277
27479.307,5636,-1210.181314
27501.935,5637,-1210.642676
27502.014,5638,-1210.888106
27507.948,5639,-1211.098845
27508.056,5640,-1211.196209
27521.990,5641,-1211.280375
27539.631,5642,-1211.310017
27539.738,5643,-1211.333240
27558.600,5644,-1211.331437
27558.698,5645,-1211.385384
27558.775,5646,-1211.389279
27588.041,5647,-1211.377739
27588.216,5648,-1211.445606
27593.049,5649,-1211.435942
27593.131,5650,-1211.425412
27601.957,5651,-1211.427287
27615.949,5652,-1211.436951
27616.020,5653,-1211.445317
27629.063,5654,-1211.406300
27629.195,5655,-1211.403559
27644.274,5656,-1211.408391
27644.383,5657,-1211.395337
27658.009,5658,-1211.384303
27671.040,5659,-1211.371681
27671.129,5660,-1211.406372
27688.980,5661,-1211.414449
27689.181,5662,-1211.445390
27692.991,5663,-1211.425268
27718.156,5664,-1211.477700
27718.269,5665,-1211.492052
27725.617,5666,-1211.488590
27725.785,5667,-1211.484768
27746.168,5668,-1211.516790
27749.036,5669,-1211.509650
27749.108,5670,-1211.479431
27763.058,5671,-1211.487364
27763.139,5672,-1211.452097
27777.087,5673,-1211.489816
27790.944,5674,-1211.451015
27791.014,5675,-1211.389567
27804.222,5676,-1211.424835
27804.361,5677,-1211.492773
27828.024,5678,-1211.507558
27828.132,5679,-1211.523858
27828.216,5680,-1211.550110
27843.970,5681,-1211.569078
27844.045,5682,-1211.635286
27868.345,5683,-1211.657860
27868.597,5684,-1211.637305
27868.793,5685,-1211.614659
27888.193,5686,-1211.623746
27906.953,5687,-1211.630742
27907.053,5688,-1211.593888
27907.114,5689,-1210.076233
27910.085,5690,2.189324
27924.046,5691,4.560683
27924.165,5692,7.210216
27938.540,5693,4.666991
27940.805,5694,-1210.915440
27951.992,5695,-1211.729549
27965.993,5696,-1211.398943
27966.078,5697,-1211.169164
27978.988,5698,-1211.265446
27979.086,5699,-1211.315138
27987.886,5700,-1211.333962
28012.181,5701,-1211.318600
28012.337,5702,-1211.278428
28017.967,5703,-1211.268115
28018.041,5704,-1211.240925
28033.746,5705,-1211.204143
28047.182,5706,-1211.135988
28047.304,5707,-1211.088748
28061.432,5708,-1211.052110
28061.542,5709,-1210.977032
28088.104,5710,-1210.923229
28088.191,5711,-1210.840794
28088.252,5712,-1210.772206
28097.968,5713,-1210.672606
28098.061,5714,-1210.484369
28124.052,5715,0.375826
28124.146,5716,1.576651
28124.232,5717,1.934374
28139.040,5718,2.237501
28139.191,5719,2.368330
28162.046,5720,2.497500
28162.109,5721,2.553322
28162.157,5722,2.570848
28187.705,5723,2.404751
28187.811,5724,1.230323
28196.055,5725,-1210.368181
28196.191,5726,-1210.690276
28203.915,5727,-1210.978186
28218.075,5728,-1211.189430
28218.146,5729,-1211.327038
28242.620,5730,-1211.364036
28242.757,5731,-1211.453179
28242.850,5732,-1211.481955
28266.970,5733,-1211.498904
28267.053,5734,-1211.494793
28275.980,5735,-1211.475176
28276.074,5736,-1211.531214
28300.939,5737,-1211.543908
28301.009,5738,-1211.553356
28301.060,5739,-1211.539869
28315.964,5740,-1211.528690
28316.107,5741,-1211.564679
28328.137,5742,-1211.535109
28328.217,5743,-1211.558837
28352.970,5744,-1211.543259
28353.089,5745,-1211.530493
28353.173,5746,-1211.522992
28368.030,5747,-1211.480657
28368.138,5748,-1211.530421
28382.345,5749,-1211.522704
28399.516,5750,-1211.526887
28399.672,5751,-1211.521478
28410.206,5752,-1211.535542
28410.352,5753,-1211.526743
28417.999,5754,-1211.549317
28445.557,5755,-1211.548668
28445.634,5756,-1211.596629
28448.658,5757,-1211.562010
28448.720,5758,-1211.569944
28462.288,5759,-1211.593383
28475.980,5760,-1211.587541
28476.072,5761,-1211.590498
28490.087,5762,-1211.611197
28490.348,5763,-1211.605355
28512.987,5764,-1211.610187
28513.106,5765,-1211.608384
28513.192,5766,-1211.609683
28528.267,5767,-1211.600740
28528.359,5768,-1211.628578
28554.181,5769,-1211.606942
28554.424,5770,-1211.553428
28554.492,5771,-1211.553067
28568.994,5772,-1211.574920
28569.084,5773,-1211.541960
28591.980,5774,-1211.518232
28592.065,5775,-1211.479215
28592.130,5776,-1211.571963
28618.188,5777,-1211.582637
28618.351,5778,-1211.599009
28626.046,5779,-1211.602038
28626.179,5780,-1211.643508
28636.958,5781,-1211.710725
28647.985,5782,-1211.669111
28648.072,5783,-1211.680722
28672.593,5784,-1211.697310
28672.684,5785,-1211.687862
28672.761,5786,-1211.706903
28697.062,5787,-1211.560279
28697.183,5788,-1210.272115
28702.980,5789,2.534210
28703.090,5790,5.334044
28718.013,5791,7.561809
28735.090,5792,4.475868
28735.159,5793,-1211.030185
28745.067,5794,-1211.619275
28745.171,5795,-1211.203926
28769.003,5796,-1211.291410
28769.083,5797,-1211.402477
28769.146,5798,-1211.456785
28789.145,5799,-1211.466810
28789.240,5800,-1211.452385
28809.047,5801,-1211.448563
28809.215,5802,-1211.400314
28809.274,5803,-1211.367282
28824.183,5804,-1211.364541
28824.279,5805,-1211.302733
28843.493,5806,-1211.267610
28843.585,5807,-1211.198445
28851.977,5808,-1211.160293
28866.314,5809,-1210.157658
28866.461,5810,-1210.537955
28878.993,5811,-1210.945370
28879.083,5812,-1210.883346
28889.437,5813,-1210.764561
28912.016,5814,-1210.562404
28912.124,5815,-1210.008727
28922.209,5816,1.552490
28922.316,5817,1.921753
28930.681,5818,2.134872
28949.208,5819,2.170212
28949.334,5820,2.398261
28968.054,5821,2.364796
28968.144,5822,2.235194
28968.210,5823,0.815263
28999.590,5824,-1210.483648
28999.726,5825,-1210.798675
29001.961,5826,-1211.042085
29002.049,5827,-1211.244531
29026.810,5828,-1211.353795
29026.926,5829,-1211.494000
29027.026,5830,-1211.524723
29041.288,5831,-1211.577156
29041.373,5832,-1211.596845
29055.011,5833,-1211.577012
29055.105,5834,-1211.599297
29062.971,5835,-1211.590859
29088.854,5836,-1211.605500
29088.952,5837,-1211.608024
29095.426,5838,-1211.594898
29096.697,5839,-1211.610692
29107.483,5840,-1211.604778
29121.427,5841,-1211.654110
29121.664,5842,-1211.630886
29135.310,5843,-1211.614371
29135.386,5844,-1211.613433
29142.936,5845,-1211.628651
29168.870,5846,-1211.623963
29168.951,5847,-1211.641777
29176.045,5848,-1211.625045
29176.184,5849,-1211.642931
29188.018,5850,-1211.625261
29201.968,5851,-1211.638676
29202.054,5852,-1211.648700
29216.709,5853,-1211.637666
29216.807,5854,-1211.692623
29239.952,5855,-1211.666659
29240.046,5856,-1211.678919
29240.119,5857,-1211.708634
29269.186,5858,-1211.703801
29269.337,5859,-1211.714908
29269.442,5860,-1211.700700
29269.543,5861,-1211.693632
29278.006,5862,-1211.719668
29302.161,5863,-1211.694209
29302.301,5864,-1211.748517
29309.080,5865,-1211.730919
29309.170,5866,-1211.735607
29322.050,5867,-1211.732506
29340.368,5868,-1211.727241
29340.451,5869,-1211.468036
29348.943,5870,-1211.665793
29349.030,5871,-1211.709138
29359.054,5872,-1211.674953
29382.446,5873,-1211.687502
29387.052,5874,-1211.637449
29389.948,5875,-1211.604778
29390.195,5876,-1211.633843
29403.829,5877,-1211.726448
29417.114,5878,-1211.710004
29417.187,5879,-1211.733804
29429.020,5880,-1211.746858
29429.120,5881,-1211.796045
29453.380,5882,-1211.798064
29453.502,5883,-1211.826913
29453.602,5884,-1211.836145
29468.008,5885,-1211.840111
29468.103,5886,-1211.839318
29492.961,5887,-1211.825254
29493.058,5888,-1211.763302
29493.123,5889,-1211.117813
29508.106,5890,1.766475
29508.194,5891,4.396318
29533.360,5892,7.126266
29533.508,5893,4.887899
29533.581,5894,-1210.795357
29557.083,5895,-1211.828932
29557.162,5896,-1211.394544
29562.864,5897,-1211.400530
29562.944,5898,-1211.554654
29577.001,5899,-1211.602975
29591.950,5900,-1211.651585
29592.032,5901,-1211.654254
29603.955,5902,-1211.623314
29604.019,5903,-1211.577156
29612.899,5904,-1211.563381
29640.305,5905,-1211.523497
29640.387,5906,-1211.480873
29644.152,5907,-1211.426494
29644.251,5908,-1211.390433
29657.033,5909,-1211.340453
29672.027,5910,-1211.275687
29672.129,5911,-1211.210057
29689.694,5912,-1211.176232
29689.814,5913,-1211.066967
29712.002,5914,-1210.961309
29712.174,5915,-1210.859834
29712.227,5916,-1210.607192
29727.926,5917,0.105730
29728.013,5918,0.720134
29739.939,5919,1.872710
29740.025,5920,2.089796
29749.029,5921,2.161052
29772.292,5922,2.178434
29772.455,5923,1.962502
29781.159,5924,0.403016
29781.333,5925,-1210.573583
29792.962,5926,-1210.859546
29806.816,5927,-1211.154018
29806.901,5928,-1211.356896
29820.084,5929,-1211.509794
29820.209,5930,-1211.614515
29828.059,5931,-1211.652379
29851.965,5932,-1211.710437
29852.057,5933,-1211.711807
29858.948,5934,-1211.716639
29859.029,5935,-1211.742819
29872.160,5936,-1211.728467
29886.957,5937,-1211.726880
29887.047,5938,-1211.726448
29899.143,5939,-1211.742603
29899.232,5940,-1211.737987
29923.160,5941,-1211.723923
29923.359,5942,-1211.753854
29923.513,5943,-1211.718226
29940.167,5944,-1211.752700
29940.456,5945,-1211.750753
29962.052,5946,-1211.725149
29962.138,5947,-1211.738780
29962.196,5948,-1211.742675
29989.248,5949,-1211.765610
29989.352,5950,-1211.763590
29994.874,5951,-1211.752051
29994.957,5952,-1211.766114
30006.889,5953,-1211.771596
30021.042,5954,-1211.765249
30021.357,5955,-1211.779962
30036.412,5956,-1211.775130
30036.521,5957,-1211.789698
30046.584,5958,-1211.769216
30061.962,5959,-1211.623602
30062.034,5960,-1211.605355
30076.726,5961,-1211.787246
30076.823,5962,-1211.838236
30086.483,5963,-1211.837731
30098.141,5964,-1211.821504
30098.258,5965,-1211.831096
30122.174,5966,-1211.823956
30122.337,5967,-1211.822586
30122.469,5968,-1211.796910
30149.143,5969,-1211.823884
30149.220,5970,-1211.835423
30177.918,5971,-1211.822946
30178.114,5972,-1211.818403
30178.241,5973,-1211.820927
30178.367,5974,-1211.830158
30178.487,5975,-1211.838741
30192.973,5976,-1211.846242
30193.059,5977,-1211.844511
30217.985,5978,-1211.791646
30218.076,5979,-1211.812128
30218.148,5980,-1211.786236
30243.039,5981,-1211.703513
30243.173,5982,-1211.692911
30251.912,5983,-1211.774264
30251.978,5984,-1211.780972
30258.905,5985,-1211.806503
30272.979,5986,-1211.803257
30273.068,5987,-1211.855978
30307.010,5988,-1211.894419
30307.097,5989,-1210.992321
30307.163,5990,-1211.480152
30312.932,5991,-1211.888361
30313.010,5992,-1211.896005
30338.248,5993,-1211.886125
30338.338,5994,-1211.829942
30338.411,5995,-1211.306772
30363.143,5996,1.169669
30363.287,5997,3.769437
30371.969,5998,6.808931
30372.052,5999,5.412945
30384.501,6000,-1210.082651
30384.587,6001,-1211.838957
30392.975,6002,-1211.505034
30417.039,6003,-1211.420003
30417.136,6004,-1211.541456
30440.994,6005,-1211.608168
30441.090,6006,-1211.637233
30441.164,6007,-1211.633411
30448.884,6008,-1211.630382
30448.955,6009,-1211.607880
30472.120,6010,-1211.593383
30472.211,6011,-1211.542393
30472.255,6012,-1211.508280
30490.413,6013,-1211.463636
30490.494,6014,-1211.396707
30502.929,6015,-1211.359709
30503.016,6016,-1211.302444
30518.029,6017,-1211.223471
30531.661,6018,-1211.164692
30532.279,6019,-1210.871229
30547.024,6020,0.093253
30547.220,6021,-1210.864161
30553.092,6022,-1210.744079
30576.994,6023,-1210.132560
30577.046,6024,1.120842
30584.635,6025,1.817032
30584.910,6026,2.047389
30607.957,6027,2.127516
30633.894,6028,2.126434
30634.007,6029,2.193724
30634.740,6030,1.614371
30635.305,6031,-1210.393928
30638.845,6032,-1210.744512
30638.913,6033,-1211.013886
30651.991,6034,-1211.231333
30665.943,6035,-1211.405506
30666.021,6036,-1211.530782
30679.215,6037,-1211.592373
30679.311,6038,-1211.618481
30688.087,6039,-1211.647186
30711.904,6040,-1211.645888
30711.969,6041,-1211.643652
30719.111,6042,-1211.662620
30719.208,6043,-1211.664134
30736.120,6044,-1211.668390
30745.863,6045,-1211.685050
30745.921,6046,-1211.674231
30759.010,6047,-1211.692767
30759.129,6048,-1211.677765
30767.989,6049,-1211.649422
30792.182,6050,-1211.665721
30792.303,6051,-1211.686925
30798.394,6052,-1211.649133
30798.473,6053,-1211.659951
30812.283,6054,-1211.688800
30826.201,6055,-1211.689738
30826.293,6056,-1211.671851
30838.968,6057,-1211.670193
30839.060,6058,-1211.658870
30853.071,6059,-1211.661033
30853.220,6060,-1211.690531
30867.227,6061,-1211.688079
30886.508,6062,-1211.676972
30886.589,6063,-1211.713321
30893.909,6064,-1211.672933
30893.969,6065,-1211.700700
30905.976,6066,-1211.728683
30918.827,6067,-1211.728034
30918.915,6068,-1211.727601
30933.994,6069,-1211.713610
30934.109,6070,-1211.726520
30946.928,6071,-1211.693632
30962.044,6072,-1211.699835
30962.170,6073,-1211.707912
30973.927,6074,-1211.688223
30973.979,6075,-1211.691685
30987.278,6076,-1211.701926
31007.164,6077,-1211.716711
31007.280,6078,-1211.714908
31013.072,6079,-1211.445390
31013.161,6080,-1211.635719
31027.173,6081,-1211.658004
31041.051,6082,-1211.641921
31041.111,6083,-1211.706542
31054.011,6084,-1211.699113
31069.232,6085,-1211.701061
31069.427,6086,-1211.690892
31069.526,6087,-1211.694209
31082.475,6088,-1211.659807
31096.199,6089,-1211.624251
31096.290,6090,-1211.611269
31109.066,6091,-1211.560279
31109.217,6092,-1211.535974
31118.206,6093,-1211.484552
31144.072,6094,-1211.535902
31145.605,6095,-1211.671779
31147.850,6096,-1211.665216
31147.910,6097,-1211.709355
31162.377,6098,-1211.711230
31176.054,6099,-1211.703801
31176.209,6100,-1211.705316
31189.954,6101,-1211.719668
31190.033,6102,-1211.715197
31197.892,6103,-1211.709643
31222.216,6104,-1211.697887
31222.276,6105,-1211.704667
31228.307,6106,-1211.410266
31228.366,6107,0.612241
31243.049,6108,2.954102
31256.055,6109,6.081945
31256.171,6110,6.560544
31271.189,6111,2.413334
31271.259,6112,-1211.530493
31295.562,6113,-1211.538426
31295.641,6114,-1211.310162
31295.701,6115,-1211.405074
31309.037,6116,-1211.479287
31309.131,6117,-1211.453900
31338.472,6118,-1211.538643
31338.584,6119,-1211.500779
31338.646,6120,-1211.455775
31351.952,6121,-1211.446832
31352.055,6122,-1211.418344
31367.090,6123,-1211.426133
31367.165,6124,-1211.410988
31374.984,6125,-1211.395626
31388.722,6126,-1211.378100
31388.935,6127,-1211.256864
31411.971,6128,-1211.203494
31412.091,6129,-1211.119977
31412.192,6130,-1210.995351
31438.609,6131,-1210.930585
31438.811,6132,-1210.808844
31443.945,6133,-1210.527065
31444.033,6134,-1210.253580
31457.900,6135,0.874186
31471.102,6136,1.726736
31471.172,6137,1.991495
31484.668,6138,1.960626
31484.726,6139,2.100326
31508.009,6140,2.047389
31508.169,6141,1.092066
31523.982,6142,-1210.429052
31524.101,6143,-1210.828101
31524.185,6144,-1211.133175
31539.068,6145,-1211.353939
31539.156,6146,-1211.538066
31552.073,6147,-1211.634925
31566.221,6148,-1211.726087
31566.374,6149,-1211.750680
31586.274,6150,-1211.737554
31586.437,6151,-1211.764311
31587.991,6152,-1211.763518
31612.252,6153,-1211.754575
31612.416,6154,-1211.732217
31621.239,6155,-1211.756667
31621.392,6156,-1211.731135
31629.235,6157,-1211.713610
31652.976,6158,-1211.773182
31653.083,6159,-1211.766547
31658.881,6160,-1211.823163
31658.941,6161,-1211.765105
31686.882,6162,-1211.793016
31708.194,6163,-1211.825038
31708.266,6164,-1211.766114
31708.318,6165,-1211.788472
31708.367,6166,-1211.795179
31737.199,6167,-1211.814292
31761.202,6168,-1211.785299
31761.363,6169,-1211.481595
31761.444,6170,-1211.723346
31761.486,6171,-1211.800012
31768.149,6172,-1211.843789
31768.301,6173,-1211.842708
31768.430,6174,-1211.830158
31793.263,6175,-1211.747796
31793.430,6176,-1211.799002
31793.561,6177,-1211.762364
31793.685,6178,-1211.753421
31819.300,6179,-1211.757316
31852.060,6180,-1211.670337
31852.211,6181,-1211.689882
31852.334,6182,-1211.687286
31852.455,6183,-1211.679208
31857.960,6184,-1211.743973
31858.033,6185,-1211.631175
31858.099,6186,-1211.591941
31886.884,6187,-1211.608745
31886.985,6188,-1211.644950
31910.302,6189,-1211.602254
31910.463,6190,-1211.573622
31910.539,6191,-1211.610548
31935.959,6192,-1211.529628
31936.056,6193,-1211.530060
31962.086,6194,-1211.495009
31962.215,6195,-1211.442721
31962.315,6196,-1211.388918
31969.081,6197,-1211.446111
31969.225,6198,-1211.573189
31995.925,6199,-1211.160365
31996.061,6200,-1211.300209
32021.995,6201,-1211.384375
32022.075,6202,-1211.368724
32022.134,6203,-1211.389640
32053.998,6204,-1211.350766
32054.088,6205,-1211.304175
32054.154,6206,-1211.316148
32054.210,6207,-1211.334611
32059.403,6208,-1211.323288
32084.143,6209,-1211.335981
32084.301,6210,-1211.314345
32109.977,6211,-1211.347665
32110.077,6212,-1211.370888
32138.462,6213,-1210.993548
32138.650,6214,1.942668
32138.770,6215,3.629954
32150.971,6216,6.851410
32151.052,6217,6.680626
32156.034,6218,1.627929
32156.223,6219,-1211.344636
32156.362,6220,-1211.240564
32182.284,6221,-1211.098701
32182.607,6222,-1211.109447
32183.086,6223,-1211.202700
32183.153,6224,-1211.235299
32208.077,6225,-1211.244026
32238.675,6226,-1211.288092
32238.824,6227,-1211.308863
32238.932,6228,-1211.238977
32239.043,6229,-1211.143128
32246.944,6230,-1211.002202
32250.222,6231,-1211.216908
32250.322,6232,-1211.100288
32275.082,6233,-1211.028238
32275.223,6234,-1211.066174
32275.333,6235,-1210.955467
32302.955,6236,-1210.863945
32303.100,6237,-1210.853055
32303.219,6238,-1210.461290
32303.333,6239,0.437129
32327.175,6240,1.475536
32327.356,6241,1.625766
32327.500,6242,2.066429
32343.004,6243,2.268874
32343.132,6244,2.347415
32346.035,6245,2.488268
32346.131,6246,2.568684
32346.184,6247,2.496707
32371.180,6248,2.247238
32371.258,6249,0.368037
32395.987,6250,-1210.421984
32396.097,6251,-1210.733549
32396.169,6252,-1210.908228
32421.134,6253,-1211.093075
32421.229,6254,-1211.236958
32451.009,6255,-1211.282900
32451.128,6256,-1211.364108
32451.201,6257,-1211.413223
32458.933,6258,-1211.485561
32459.033,6259,-1211.456857
32459.121,6260,-1211.445822
32459.206,6261,-1211.467098
32488.669,6262,-1211.430460
32509.089,6263,-1211.453828
32509.283,6264,-1211.522704
32512.322,6265,-1211.547514
32512.443,6266,-1211.532873
32538.735,6267,-1211.494793
32563.009,6268,-1211.516429
32563.180,6269,-1211.576435
32563.315,6270,-1211.641560
32563.450,6271,-1211.594826
32587.949,6272,-1211.625117
32612.058,6273,-1211.626415
32612.157,6274,-1211.640551
32612.219,6275,-1211.651802
32612.281,6276,-1211.665505
32641.793,6277,-1211.682525
32647.965,6278,-1211.700340
32648.206,6279,-1211.748084
32648.957,6280,-1211.712744
32649.132,6281,-1211.750320
32671.998,6282,-1211.762220
32672.075,6283,-1211.765177
32672.133,6284,-1211.809604
32699.756,6285,-1211.778375
32701.633,6286,-1211.829798
32722.045,6287,-1211.767413
32722.138,6288,-1211.747723
32722.242,6289,-1211.532657
32753.360,6290,-1211.811190
32753.441,6291,-1211.773543
32756.894,6292,-1211.739429
32756.971,6293,-1211.748012
32757.039,6294,-1211.874369
32783.594,6295,-1211.868311
32784.527,6296,-1211.910213
32784.705,6297,-1211.947933
32784.826,6298,-1211.973104
32784.917,6299,-1212.067655
32810.086,6300,-1212.053519
32810.248,6301,-1212.083161
32834.476,6302,-1212.040754
32834.576,6303,-1212.047172
32834.657,6304,-1212.086551
32852.933,6305,-1211.918219
32853.025,6306,-1210.942702
32879.260,6307,2.367392
32904.071,6308,5.700061
32904.181,6309,7.163914
32907.231,6310,2.181391
32907.310,6311,-1211.708417
32932.091,6312,-1212.025392
32951.005,6313,-1211.671130
32951.106,6314,-1211.645311
32951.185,6315,-1211.743901
32951.262,6316,-1211.793737
32955.980,6317,-1211.865498
32956.103,6318,-1211.796838
32956.212,6319,-1211.755368
32960.300,6320,-1211.723202
32960.470,6321,-1211.683679
32989.018,6322,-1211.633122
32989.096,6323,-1211.605067
33009.252,6324,-1211.584079
33009.353,6325,-1211.523209
33009.426,6326,-1211.440341
33038.088,6327,-1211.401251
33038.165,6328,-1211.312614
33038.223,6329,-1211.213519
33061.991,6330,-1211.139738
33062.079,6331,-1210.978402
33062.134,6332,-1210.845987
33062.188,6333,-1210.717177
33088.459,6334,-1210.212326
33088.540,6335,1.165846
33088.599,6336,1.901198
33113.971,6337,2.053375
33114.149,6338,2.117491
33114.288,6339,1.829293
33138.927,6340,0.189536
33139.009,6341,-1210.548557
33165.220,6342,-1210.893082
33165.326,6343,-1211.205369
33165.382,6344,-1211.426133
33165.436,6345,-1211.581988
33165.490,6346,-1211.636945
33182.952,6347,-1211.703008
33184.020,6348,-1211.685915
33188.899,6349,-1211.721688
33188.996,6350,-1211.749959
33192.511,6351,-1211.728828
33212.995,6352,-1211.754503
33213.077,6353,-1211.735319
33240.301,6354,-1211.758253
33240.406,6355,-1211.764528
33240.479,6356,-1211.740151
33264.481,6357,-1211.715124
33264.669,6358,-1211.694714
33278.159,6359,-1211.718731
33278.330,6360,-1211.710941
33278.473,6361,-1211.664928
33288.359,6362,-1211.692767
33288.437,6363,-1211.683391
33311.123,6364,-1211.714331
33311.220,6365,-1211.660312
33342.142,6366,-1211.608529
33342.238,6367,-1211.659158
33342.311,6368,-1211.639613
33362.099,6369,-1211.693849
33388.092,6370,-1211.688944
33388.189,6371,-1211.704595
33388.253,6372,-1211.657427
33388.314,6373,-1211.655480
33396.971,6374,-1211.680722
33397.077,6375,-1211.634348
33397.150,6376,-1211.550254
33421.437,6377,-1211.565111
33421.554,6378,-1211.560928
33421.638,6379,-1211.545855
33421.710,6380,-1211.477123
33448.586,6381,-1211.532080
33472.031,6382,-1211.559197
33472.178,6383,-1211.614515
33472.298,6384,-1211.702503
33472.417,6385,-1211.707696
33472.535,6386,-1211.738636
33496.421,6387,-1211.774408
33496.501,6388,-1211.747435
33498.912,6389,-1211.779168
33498.994,6390,-1211.753710
33525.003,6391,-1211.733660
33551.576,6392,-1211.703224
33551.703,6393,-1210.801127
33551.822,6394,2.394871
33551.923,6395,4.981802
33576.045,6396,7.899121
33593.438,6397,5.098999
33593.551,6398,-1210.761893
33593.620,6399,-1211.682309
33593.687,6400,-1211.514987
33619.025,6401,-1211.189069
33620.885,6402,-1211.318960
33620.957,6403,-1211.422094
33646.052,6404,-1211.457362
33646.183,6405,-1211.467242
33671.032,6406,-1211.456568
33671.127,6407,-1211.457073
33671.196,6408,-1211.417406
33689.162,6409,-1211.357185
33689.255,6410,-1211.372907
33708.972,6411,-1211.346799
33709.060,6412,-1211.265446
33709.126,6413,-1211.229530
33738.692,6414,-1211.117092
33738.782,6415,-1211.168947
33769.287,6416,-1210.964050
33769.457,6417,-1210.918469
33769.522,6418,-1210.817571
33797.635,6419,-1210.701671
33797.747,6420,-1210.435903
33797.865,6421,0.268509
33797.949,6422,1.536623
33822.250,6423,2.044215
33822.407,6424,2.208869
33822.547,6425,2.175260
33850.068,6426,2.255965
33850.158,6427,2.249546
33850.225,6428,0.973858
33850.294,6429,-1210.406982
33850.378,6430,-1210.727924
33869.021,6431,-1210.990735
33869.114,6432,-1211.200609
33869.186,6433,-1211.326245
33876.954,6434,-1211.299343
33877.021,6435,-1211.363387
33877.072,6436,-1211.384447
33877.121,6437,-1211.410771
33877.174,6438,-1211.367065
33904.049,6439,-1211.376153
33904.144,6440,-1211.398727
33927.999,6441,-1211.348097
33928.082,6442,-1211.358267
33928.141,6443,-1211.358844
33954.034,6444,-1211.359348
33954.120,6445,-1211.315282
33988.265,6446,-1211.306195
33988.349,6447,-1211.330211
33988.409,6448,-1211.295016
33989.839,6449,-1211.277779
33989.914,6450,-1211.327471
33989.977,6451,-1211.337207
33990.032,6452,-1211.380769
34015.966,6453,-1211.379038
34042.000,6454,-1211.374927
34042.086,6455,-1211.399881
34042.150,6456,-1211.401179
34042.212,6457,-1211.442721
34067.003,6458,-1211.429379
34094.365,6459,-1211.453107
34094.629,6460,-1211.463276
34094.865,6461,-1211.417551
34094.970,6462,-1211.424186
34120.027,6463,-1211.420363
34145.087,6464,-1211.417623
34145.236,6465,-1211.448274
34145.355,6466,-1211.444596
34145.468,6467,-1211.464069
34171.063,6468,-1211.472363
34191.958,6469,-1211.454549
34192.028,6470,-1211.517006
34192.079,6471,-1211.501140
34192.128,6472,-1211.445822
34219.565,6473,-1211.383870
34219.645,6474,-1211.433634
34219.702,6475,-1211.432047
34246.856,6476,-1211.387187
34248.629,6477,-1211.361007
34278.168,6478,-1211.407958
34278.322,6479,-1211.402982
34278.449,6480,-1211.445462
34290.826,6481,-1211.493711
34293.493,6482,-1211.527248
34311.189,6483,-1211.582565
34312.201,6484,-1211.594826
34312.348,6485,-1211.606004
34312.493,6486,-1211.578815
34312.633,6487,-1211.544052
34339.443,6488,-1211.575425
34370.123,6489,-1211.460751
34370.451,6490,0.067073
34370.512,6491,2.685665
34370.569,6492,5.243026
34374.072,6493,8.012929
34374.147,6494,5.124891
34374.212,6495,-1210.247666
34376.908,6496,-1211.425412
34377.018,6497,-1210.996288
34407.362,6498,-1211.113991
34427.305,6499,-1211.174573
34427.389,6500,-1211.173130
34427.452,6501,-1211.318672
34427.543,6502,-1211.319682
34453.092,6503,-1211.295593
34479.002,6504,-1211.294367
34479.094,6505,-1211.294944
34481.250,6506,-1211.280015
34481.463,6507,-1211.187627
34491.890,6508,-1211.170029
34491.981,6509,-1211.103966
34492.041,6510,-1211.058241
34492.098,6511,-1211.006529
34492.155,6512,-1210.920272
34513.165,6513,-1210.855290
34513.301,6514,-1210.803579
34513.409,6515,-1210.642171
34540.046,6516,-1210.346617
34540.132,6517,0.625511
34562.989,6518,1.701349
34563.073,6519,2.013564
34563.133,6520,2.079916
34591.297,6521,2.254955
34591.389,6522,2.378643
34596.940,6523,2.403886
34597.046,6524,2.408790
34597.138,6525,2.152109
34622.019,6526,0.308969
34622.127,6527,-1210.514371
34622.211,6528,-1210.768095
34622.294,6529,-1210.985975
34648.982,6530,-1211.103389
34649.069,6531,-1211.262056
34649.136,6532,-1211.247632
34673.033,6533,-1211.251959
34673.139,6534,-1211.312325
34691.927,6535,-1211.299199
34691.998,6536,-1211.302228
34692.050,6537,-1211.290544
34698.866,6538,-1211.297901
34698.925,6539,-1211.346583
34724.969,6540,-1211.332014
34725.213,6541,-1211.294295
34725.398,6542,-1211.303310
34725.520,6543,-1211.300064
34725.573,6544,-1211.328841
34751.049,6545,-1211.307998
34785.639,6546,-1211.307637
34789.013,6547,-1211.329057
34789.116,6548,-1211.337063
34789.186,6549,-1211.336630
34789.247,6550,-1211.320836
34789.305,6551,-1211.360070
34789.364,6552,-1211.325451
34789.847,6553,-1211.337063
34789.906,6554,-1211.358050
34815.023,6555,-1211.363099
34842.312,6556,-1211.358916
34842.406,6557,-1211.369806
34842.479,6558,-1211.364397
34842.548,6559,-1211.340236
34871.981,6560,-1211.386610
34881.013,6561,-1211.365623
34881.686,6562,-1211.356752
34904.005,6563,-1211.400241
34904.096,6564,-1211.387548
34929.085,6565,-1211.393246
34929.165,6566,-1211.410627
34929.226,6567,-1211.373629
34961.119,6568,-1211.428008
34961.235,6569,-1211.352208
34961.318,6570,-1211.322350
34990.370,6571,-1211.358627
34990.532,6572,-1211.290112
34990.665,6573,-1211.268619
34990.811,6574,-1211.248786
35013.235,6575,-1211.313551
35013.399,6576,-1211.338938
35013.502,6577,-1211.362666
35039.033,6578,-1211.403992
35039.130,6579,-1211.448779
35067.044,6580,-1211.535181
35067.137,6581,-1211.532512
35067.204,6582,-1211.505251
35074.283,6583,-1211.507991
35074.439,6584,-1211.485633
35098.950,6585,-1211.482893
35099.029,6586,-1211.416902
35100.863,6587,-1210.499154
35127.007,6588,2.285246
35127.136,6589,4.648239
35159.417,6590,7.534907
35159.562,6591,5.192757
35159.665,6592,0.005337
35167.454,6593,-1211.457650
35167.546,6594,-1211.025137
35167.615,6595,-1210.991600
35167.709,6596,-1211.182290
35216.993,6597,-1211.209047
35217.159,6598,-1211.235588
35217.251,6599,-1211.256647
35217.339,6600,-1211.234650
35217.427,6601,-1211.215105
35244.049,6602,-1211.160149
35269.096,6603,-1211.138873
35269.228,6604,-1211.093292
35270.885,6605,-1211.055428
35297.002,6606,-1211.049442
35297.122,6607,-1210.947967
35297.216,6608,-1210.909382
35297.309,6609,-1210.835745
35297.401,6610,-1210.777038
35322.954,6611,-1210.649672
35323.023,6612,-1210.381379
35323.072,6613,0.720928
35347.911,6614,1.707912
35348.007,6615,1.950313
35348.067,6616,2.127804
35348.122,6617,2.112010
35376.980,6618,2.364147
35377.046,6619,2.481489
35377.095,6620,2.536229
35385.787,6621,2.505505
35385.849,6622,2.326644
35385.901,6623,1.211499
35411.039,6624,-1210.275360
35411.107,6625,-1210.588224
35436.802,6626,-1210.812234
35436.960,6627,-1210.975012
35437.020,6628,-1211.034441
35466.104,6629,-1211.099206
35466.162,6630,-1211.127694
35471.161,6631,-1211.147167
35471.314,6632,-1211.138368
35471.444,6633,-1211.110024
35497.151,6634,-1211.126973
35497.301,6635,-1211.131516
35497.490,6636,-1211.131805
35497.674,6637,-1211.126323
35523.224,6638,-1211.113919
35549.369,6639,-1211.127982
35549.534,6640,-1211.100865
35549.661,6641,-1211.099350
35549.791,6642,-1211.082546
35577.136,6643,-1211.111683
35586.875,6644,-1211.115289
35586.950,6645,-1211.092138
35587.006,6646,-1211.130362
35587.059,6647,-1211.068915
35609.019,6648,-1211.103245
35610.961,6649,-1210.988283
35611.017,6650,-1211.052182
35636.692,6651,-1211.119256
35636.773,6652,-1211.111034
35661.050,6653,-1211.113125
35661.130,6654,-1211.141830
35661.175,6655,-1211.116154
35679.114,6656,-1211.124953
35679.214,6657,-1211.096537
35681.021,6658,-1211.122068
35681.546,6659,-1211.115577
35687.218,6660,-1211.126035
35687.283,6661,-1211.113269
35687.336,6662,-1211.083555
35712.023,6663,-1211.132670
35712.082,6664,-1211.074396
35737.200,6665,-1211.021314
35737.355,6666,-1211.043961
35737.586,6667,-1211.014319
35769.232,6668,-1210.991023
35774.218,6669,-1210.963978
35774.371,6670,-1211.017997
35775.982,6671,-1211.083411
35776.042,6672,-1211.056510
35802.628,6673,-1211.097331
35802.769,6674,-1211.140387
