timestamp_ms,sample_index,raw_ecg_mv
13.398,81839,8.691089
13.561,81840,8.872836
13.661,81841,8.636277
13.727,81842,8.674934
23.598,81843,8.437798
23.906,81844,8.416306
24.036,81845,8.448472
24.598,81846,8.411401
24.669,81847,8.593941
54.421,81848,8.464699
54.612,81849,8.154360
54.729,81850,8.369066
78.868,81851,8.389260
78.973,81852,8.388755
99.273,81853,5.341400
99.431,81854,7.896813
99.563,81855,9.776664
130.884,81856,6.007010
131.055,81857,3.887789
132.034,81858,3.137796
132.131,81859,3.433062
158.227,81860,3.474171
184.115,81861,3.511746
184.224,81862,3.695873
184.316,81863,3.598076
184.385,81864,3.522420
217.209,81865,3.590143
220.551,81866,3.396784
220.669,81867,3.606442
247.880,81868,3.719312
247.995,81869,3.655773
248.176,81870,3.654187
248.316,81871,3.618991
248.428,81872,3.780111
271.835,81873,3.931278
271.951,81874,3.919738
296.180,81875,3.967122
296.275,81876,3.852016
296.342,81877,5.403929
327.048,81878,8.391135
327.124,81879,8.443207
332.163,81880,8.424311
332.254,81881,8.289227
332.328,81882,8.279996
358.196,81883,8.029085
358.278,81884,7.785313
358.338,81885,7.688815
358.395,81886,7.539523
384.255,81887,7.526541
409.294,81888,7.457521
409.470,81889,7.526902
409.604,81890,7.616837
409.729,81891,7.521132
418.313,81892,7.691627
418.416,81893,7.849790
418.470,81894,7.927754
421.556,81895,7.913257
421.885,81896,7.819211
446.168,81897,7.797935
446.244,81898,7.797646
446.301,81899,7.604721
470.474,81900,7.600033
470.562,81901,7.375446
495.271,81902,7.083354
495.429,81903,7.306570
495.559,81904,7.289838
521.958,81905,7.456799
522.084,81906,7.538369
541.290,81907,7.475551
541.406,81908,7.266903
541.499,81909,7.380639
548.946,81910,7.553370
549.110,81911,7.621958
549.231,81912,7.741752
549.313,81913,7.715644
549.398,81914,7.393260
577.394,81915,8.010044
577.956,81916,8.658923
601.574,81917,10.984557
628.521,81918,14.087446
628.739,81919,10.735016
628.803,81920,7.918089
628.865,81921,7.210071
655.297,81922,7.553082
660.141,81923,7.466969
660.258,81924,7.223774
660.324,81925,7.266470
660.377,81926,5.884187
671.187,81927,2.659485
671.404,81928,2.752017
671.880,81929,2.796516
694.093,81930,2.951217
694.160,81931,2.885370
719.164,81932,2.944582
719.238,81933,7.491562
719.289,81934,7.632560
748.197,81935,7.778390
748.289,81936,7.817840
757.074,81937,7.931143
757.148,81938,8.168784
757.203,81939,8.080002
759.024,81940,8.156668
759.094,81941,8.040696
765.285,81942,8.036946
765.506,81943,8.014804
789.120,81944,7.957251
815.478,81945,8.046033
815.556,81946,7.815316
815.615,81947,7.553803
840.287,81948,7.606308
840.362,81949,7.384894
855.865,81950,7.353089
856.011,81951,7.234376
856.124,81952,7.254859
862.208,81953,7.359724
862.286,81954,7.201561
886.306,81955,7.335563
886.401,81956,7.414176
886.476,81957,7.523800
913.216,81958,7.511756
913.334,81959,7.303036
938.427,81960,7.315225
938.639,81961,7.242454
938.808,81962,7.095831
965.273,81963,7.075781
965.374,81964,6.902689
981.426,81965,7.168024
982.085,81966,7.553226
999.746,81967,7.530075
1027.847,81968,7.605658
1028.012,81969,7.425282
1028.079,81970,7.313061
1028.144,81971,7.163481
1052.240,81972,7.036402
1052.363,81973,7.048735
1052.483,81974,6.858983
1087.105,81975,6.868431
1087.197,81976,6.923172
1087.259,81977,7.023637
1087.317,81978,7.964319
1089.095,81979,8.955271
1116.386,81980,12.263129
1116.565,81981,13.146475
1116.629,81982,8.912430
1116.689,81983,7.291857
1141.246,81984,7.082921
1143.095,81985,7.331668
1143.183,81986,7.205095
1179.087,81987,7.203076
1179.172,81988,7.384029
1179.235,81989,7.305488
1179.296,81990,7.278948
1179.356,81991,7.247719
1204.402,81992,7.674174
1204.534,81993,7.367657
1231.943,81994,7.147398
1232.019,81995,7.322653
1232.075,81996,7.343208
1256.322,81997,7.357776
1256.403,81998,7.626141
1284.209,81999,7.459396
1284.324,82000,7.595129
1284.414,82001,7.744204
1292.220,82002,7.807094
1292.288,82003,7.888736
1292.346,82004,7.825485
1319.173,82005,7.873302
1319.251,82006,7.891621
1344.256,82007,7.772476
1344.360,82008,7.772332
1344.500,82009,7.633930
1369.163,82010,7.395785
1369.273,82011,7.512694
1369.361,82012,7.456872
1369.445,82013,7.441005
1384.169,82014,7.465598
1384.245,82015,7.374364
1384.317,82016,7.386914
1391.122,82017,7.172640
1391.194,82018,7.087465
1416.151,82019,7.005390
1441.161,82020,6.867133
1441.220,82021,6.860786
1443.036,82022,6.848021
1443.091,82023,6.921801
1469.919,82024,7.124319
1495.196,82025,7.260989
1495.320,82026,7.411651
1495.418,82027,7.317749
1495.512,82028,7.271230
1502.152,82029,7.386264
1529.037,82030,7.707638
1529.149,82031,7.710379
1553.558,82032,7.642873
1553.661,82033,5.736915
1553.726,82034,2.968959
1553.784,82035,2.831207
1553.827,82036,2.930590
1581.802,82037,2.990523
1581.883,82038,2.840943
1610.234,82039,2.646792
1610.374,82040,2.569405
1610.492,82041,2.905564
1614.172,82042,3.548384
1614.256,82043,5.141262
1614.312,82044,8.301560
1641.177,82045,6.721880
1641.279,82046,3.306272
1666.306,82047,2.019766
1666.393,82048,2.424513
1666.451,82049,2.396097
1691.167,82050,2.342655
1691.267,82051,2.372657
1718.176,82052,2.302267
1718.253,82053,2.482499
1718.429,82054,2.497860
1718.622,82055,2.532335
1718.740,82056,2.669798
1745.289,82057,2.733265
1745.400,82058,6.458275
1770.681,82059,7.339530
1771.207,82060,7.356550
1771.304,82061,7.466319
1795.172,82062,7.354315
1795.258,82063,7.541326
1814.340,82064,7.611428
1814.569,82065,7.598951
1814.678,82066,7.542047
1821.525,82067,7.617847
1821.592,82068,7.770529
1849.177,82069,7.840991
1849.256,82070,7.798295
1849.315,82071,7.777092
1881.771,82072,7.731511
1881.859,82073,7.650302
1881.935,82074,7.577459
1881.995,82075,7.469349
1882.054,82076,7.436028
1899.146,82077,7.305128
1899.222,82078,7.343713
1899.277,82079,7.227525
1930.446,82080,7.074411
1930.528,82081,6.942067
1930.583,82082,6.961252
1930.636,82083,6.910334
1947.226,82084,6.859849
1949.384,82085,6.901968
1949.475,82086,7.024502
1977.327,82087,7.024358
1977.409,82088,7.296762
2000.495,82089,7.424705
2000.581,82090,7.495601
2000.646,82091,7.391890
2027.580,82092,7.355108
2027.763,82093,6.257200
2055.341,82094,3.036393
2055.406,82095,2.891428
2055.452,82096,2.877725
2060.233,82097,2.735646
2060.325,82098,2.714225
2060.372,82099,2.508318
2086.482,82100,2.578781
2086.646,82101,2.722591
2086.762,82102,2.614842
2086.877,82103,2.756128
2095.376,82104,2.808560
2121.118,82105,2.845126
2121.214,82106,3.569444
2121.274,82107,4.352973
2121.328,82108,7.187137
2148.189,82109,7.714562
2148.264,82110,4.074439
2152.036,82111,2.748123
2155.184,82112,2.685665
2155.364,82113,2.967300
2180.162,82114,5.278798
2180.228,82115,7.171631
2204.121,82116,7.238559
2204.178,82117,7.210504
2204.219,82118,7.142133
2231.229,82119,7.104630
2231.303,82120,7.147181
2243.226,82121,7.232213
2243.298,82122,7.264163
2243.352,82123,7.250820
2269.331,82124,7.390159
2269.383,82125,7.327413
2269.418,82126,7.457160
2295.288,82127,7.545653
2295.390,82128,7.603711
2320.671,82129,7.615972
2320.915,82130,7.656648
2321.029,82131,7.892919
2349.215,82132,7.869696
2349.293,82133,8.114909
2355.202,82134,8.329615
2355.247,82135,8.223236
2355.281,82136,8.133084
2355.318,82137,7.991870
2355.374,82138,7.715932
2382.210,82139,7.562241
2382.342,82140,7.441365
2382.448,82141,6.976253
2382.543,82142,6.777919
2407.284,82143,6.613193
2440.110,82144,6.584560
2440.202,82145,6.717769
2447.013,82146,6.830567
2447.105,82147,7.017939
2447.168,82148,7.206033
2449.009,82149,7.505482
2449.054,82150,7.675256
2480.330,82151,7.720188
2480.409,82152,7.795771
2480.469,82153,7.893568
2500.145,82154,7.842722
2500.223,82155,7.738867
2532.004,82156,7.879937
2533.284,82157,7.514569
2533.376,82158,3.427653
2550.324,82159,3.101591
2550.483,82160,2.926479
2556.333,82161,2.828105
2558.566,82162,2.591114
2558.680,82163,2.583757
2584.180,82164,6.285761
2584.295,82165,6.156591
2584.357,82166,2.294261
2610.401,82167,2.137613
2610.478,82168,2.325273
2636.288,82169,3.055866
2636.463,82170,3.849853
2653.256,82171,6.592999
2653.413,82172,12.653091
2653.547,82173,9.018233
2655.036,82174,7.347391
2655.098,82175,6.929807
2661.109,82176,7.474181
2661.234,82177,7.481032
2686.297,82178,7.436894
2711.413,82179,7.523151
2711.593,82180,7.466608
2711.740,82181,7.491346
2711.880,82182,7.475335
2737.227,82183,7.383524
2764.311,82184,7.416916
2764.376,82185,7.553731
2764.423,82186,7.605803
2764.468,82187,7.563612
2771.633,82188,7.543778
2776.463,82189,7.743122
2776.532,82190,7.722928
2798.411,82191,7.916647
2798.577,82192,7.940086
2826.808,82193,8.127819
2826.884,82194,8.140512
2826.947,82195,8.194387
2849.142,82196,8.178521
2849.212,82197,8.177583
2849.264,82198,8.062261
2849.316,82199,7.881307
2849.374,82200,7.767211
2883.163,82201,7.426508
2883.548,82202,7.392683
2883.890,82203,7.322365
2883.968,82204,7.261061
2884.023,82205,7.381360
2884.071,82206,7.445116
2884.601,82207,7.480167
2908.595,82208,7.467978
2910.269,82209,7.624194
2910.330,82210,7.606740
2934.795,82211,7.609409
2936.173,82212,7.527262
2961.548,82213,3.716500
2964.494,82214,3.018002
2964.692,82215,2.901381
2988.268,82216,2.950856
2988.429,82217,3.008554
3013.215,82218,2.865248
3013.372,82219,2.905636
3013.451,82220,2.963333
3039.099,82221,2.994923
3039.171,82222,3.056587
3064.611,82223,2.987638
3064.700,82224,2.944221
3064.768,82225,2.799834
3099.115,82226,2.778269
3099.194,82227,2.824139
3105.064,82228,2.759301
3131.084,82229,2.772788
3131.739,82230,2.782020
3155.177,82231,2.812816
3155.278,82232,7.459973
3155.354,82233,8.482153
3182.511,82234,10.491028
3182.589,82235,13.579132
3195.117,82236,10.823076
3195.253,82237,7.780121
3195.300,82238,6.820687
3195.346,82239,7.117756
3195.392,82240,7.336284
3199.110,82241,7.228967
3199.224,82242,7.289982
3227.856,82243,7.213677
3227.931,82244,7.225073
3227.986,82245,7.336573
3250.177,82246,7.299430
3250.266,82247,7.350132
3277.662,82248,7.319119
3277.730,82249,7.426580
3305.270,82250,7.618640
3305.426,82251,7.645181
3305.465,82252,7.760143
3313.405,82253,7.862916
3313.570,82254,8.055337
3339.162,82255,8.020214
3339.241,82256,8.146643
3339.298,82257,8.216601
3365.434,82258,8.187824
3395.103,82259,8.178737
3395.217,82260,7.964103
3395.279,82261,7.659533
3395.339,82262,7.586114
3400.393,82263,7.514569
3400.548,82264,7.409993
3425.979,82265,7.436317
3426.039,82266,7.488389
3426.114,82267,7.587844
3451.169,82268,7.669342
3451.272,82269,7.629675
3486.972,82270,7.855344
3487.054,82271,7.892630
3487.116,82272,8.009035
3487.177,82273,7.840054
3487.236,82274,7.838034
3491.099,82275,7.613592
3491.210,82276,3.297185
3491.311,82277,3.413589
3517.135,82278,3.041513
3517.189,82279,2.825942
3542.512,82280,2.785482
3542.660,82281,2.676794
3542.776,82282,2.708239
3570.622,82283,2.590465
3570.750,82284,2.695690
3578.219,82285,2.719923
3578.296,82286,2.492812
3578.358,82287,2.382971
3605.133,82288,2.316547
3605.212,82289,2.563996
3630.040,82290,2.558515
3630.142,82291,2.431220
3661.368,82292,2.592700
3661.492,82293,2.630925
3661.581,82294,4.107255
3661.665,82295,7.321211
3661.748,82296,7.526685
3669.222,82297,8.343679
3669.756,82298,9.392905
3670.914,82299,12.231756
3694.200,82300,11.623554
3694.286,82301,8.018699
3719.140,82302,6.942572
3720.188,82303,7.253705
3720.252,82304,7.358137
3745.058,82305,7.097273
3745.126,82306,7.105279
3755.097,82307,7.285583
3755.225,82308,7.297483
3755.284,82309,7.236973
3924.241,82310,7.331236
3924.427,82311,7.286015
3924.579,82312,7.434802
3924.729,82313,7.561015
3924.878,82314,7.684632
3924.967,82315,7.948453
3925.525,82316,7.975787
3925.585,82317,7.947515
3925.643,82318,7.994466
3925.698,82319,7.967565
3925.755,82320,8.022666
3925.812,82321,7.862267
3925.868,82322,7.819355
3925.929,82323,7.847482
3928.923,82324,7.756609
3930.230,82325,7.820581
3930.292,82326,7.756537
3930.351,82327,7.847266
3930.408,82328,7.878278
3930.467,82329,7.832120
3930.524,82330,7.897174
3932.249,82331,7.717735
3946.118,82332,7.775289
3946.411,82333,7.824548
3946.599,82334,7.582219
3949.094,82335,3.935172
3949.244,82336,3.029830
3949.381,82337,3.139527
3976.183,82338,2.957564
3976.275,82339,2.825293
3976.341,82340,2.945808
3976.395,82341,2.842674
3976.448,82342,2.966074
4004.651,82343,3.005236
4004.729,82344,3.070362
4026.335,82345,3.194628
4026.479,82346,3.044687
4026.562,82347,3.043244
4055.171,82348,3.036465
4055.256,82349,3.120126
4061.502,82350,3.217057
4061.629,82351,3.041585
4061.740,82352,3.083128
4088.439,82353,2.973503
4088.585,82354,2.909603
4089.737,82355,6.689137
4090.097,82356,7.357849
4090.159,82357,7.378403
4113.114,82358,7.393116
4113.178,82359,7.288468
4138.179,82360,7.888808
4139.007,82361,8.610818
4139.082,82362,10.659360
4169.520,82363,13.592186
4169.635,82364,10.813989
4169.710,82365,7.988047
4194.170,82366,7.116890
4194.248,82367,7.515218
4219.170,82368,7.612077
4219.244,82369,7.479157
4219.297,82370,7.576161
4245.153,82371,7.586618
4245.247,82372,7.622319
4272.472,82373,7.667322
4272.629,82374,7.627439
4272.754,82375,7.848276
4272.843,82376,7.997063
4272.942,82377,8.131353
4289.161,82378,8.078272
4289.247,82379,8.045817
4295.948,82380,8.189267
4296.041,82381,8.163591
4296.107,82382,8.239968
4321.790,82383,8.242925
4321.926,82384,7.983792
4327.053,82385,8.238454
4327.341,82386,8.317499
4347.194,82387,8.213644
4378.203,82388,7.954944
4378.325,82389,8.205638
4378.421,82390,8.475662
4378.514,82391,8.319446
4384.088,82392,8.371734
4384.140,82393,8.237805
4384.183,82394,8.119453
4404.198,82395,8.308916
4404.293,82396,8.422941
4404.356,82397,8.155658
4404.417,82398,7.950688
4404.477,82399,7.768076
4427.604,82400,7.985956
4428.225,82401,8.044086
4447.171,82402,3.467824
4447.317,82403,3.364546
4447.424,82404,3.197152
4454.088,82405,3.122217
4454.162,82406,3.042018
4472.194,82407,3.009203
4472.351,82408,3.036609
4493.975,82409,3.026512
4494.051,82410,2.995572
4494.108,82411,3.041802
4516.244,82412,2.979128
4516.401,82413,3.286871
4516.524,82414,3.236314
4538.881,82415,3.252397
4538.979,82416,3.134118
4560.242,82417,2.966290
4560.353,82418,3.175083
4560.430,82419,3.078007
4585.941,82420,3.391880
4586.017,82421,7.631839
4589.073,82422,7.525964
4589.148,82423,7.596427
4618.392,82424,7.536133
4618.543,82425,8.582834
4618.604,82426,9.672809
4628.082,82427,12.774471
4628.154,82428,13.003674
4654.171,82429,8.752609
4679.321,82430,7.507717
4679.417,82431,7.605586
4679.477,82432,7.936841
4679.536,82433,8.025767
4684.102,82434,7.886933
4684.203,82435,8.024974
4697.104,82436,8.245377
4710.787,82437,7.993240
4710.931,82438,7.909363
4728.028,82439,8.030599
4728.123,82440,7.924580
4732.087,82441,7.852098
4756.161,82442,7.882101
4756.238,82443,7.926023
4763.344,82444,7.775216
4763.479,82445,7.773702
4781.158,82446,7.893784
4790.372,82447,7.957540
4790.541,82448,8.248046
4804.245,82449,8.382408
4804.326,82450,8.622718
4813.098,82451,8.818816
4836.566,82452,8.938683
4836.722,82453,9.205460
4846.117,82454,8.899737
4846.172,82455,8.595744
4869.172,82456,7.606019
4869.256,82457,3.503020
4869.313,82458,3.556029
4887.384,82459,3.431114
4887.469,82460,3.547735
4898.148,82461,3.375364
4898.268,82462,2.966435
4911.292,82463,3.198089
4927.610,82464,3.210855
4927.752,82465,3.360363
4940.317,82466,3.510448
4940.457,82467,3.297978
4948.486,82468,3.197368
4971.261,82469,3.038340
4971.850,82470,3.252325
4981.347,82471,3.511097
4981.507,82472,3.301368
4989.073,82473,3.555524
5011.152,82474,3.561871
5011.265,82475,3.690031
5018.292,82476,3.558914
5018.418,82477,3.353584
5037.991,82478,7.061645
5045.113,82479,7.841857
5045.190,82480,7.782501
5059.204,82481,7.709009
5059.278,82482,7.518824
5084.712,82483,7.571617
5084.797,82484,7.475840
5084.850,82485,7.519617
5098.770,82486,7.516011
5127.252,82487,7.592821
5127.378,82488,7.810628
5128.831,82489,8.668876
5128.886,82490,9.419662
5138.195,82491,12.406651
5138.253,82492,13.321153
5181.162,82493,9.568881
5181.244,82494,8.004419
5181.305,82495,7.894866
5185.035,82496,8.339712
5185.102,82497,8.259657
5194.239,82498,8.304878
5194.673,82499,8.651350
5206.200,82500,7.690257
5220.254,82501,7.534691
5220.337,82502,7.611068
5234.395,82503,7.625492
5236.052,82504,7.588566
5242.087,82505,7.567218
5266.211,82506,7.875249
5266.373,82507,8.236578
5277.446,82508,8.210110
5277.620,82509,8.245522
5287.055,82510,8.373321
5301.206,82511,8.625458
5301.299,82512,8.848314
5315.017,82513,8.998327
5315.107,82514,9.037994
5338.154,82515,9.008424
5338.279,82516,9.010011
5338.341,82517,8.834106
5353.173,82518,8.649114
5353.290,82519,8.708254
5379.452,82520,8.496865
5379.668,82521,8.383707
5379.825,82522,8.035576
5399.187,82523,7.854406
5399.307,82524,7.641503
5408.201,82525,7.488244
5408.319,82526,7.591090
5421.178,82527,7.382442
5436.829,82528,7.422109
5436.902,82529,7.434370
5449.391,82530,7.441438
5449.483,82531,7.463579
5461.129,82532,7.398525
5475.914,82533,7.499063
5476.013,82534,7.575007
5489.133,82535,7.638834
5489.233,82536,7.863061
5498.177,82537,7.854478
5521.163,82538,7.975426
5521.243,82539,8.008025
5528.492,82540,7.977806
5528.614,82541,8.196118
5542.120,82542,8.064568
5555.141,82543,8.009179
5569.041,82544,7.916286
5569.155,82545,7.887943
5569.234,82546,7.859959
5585.510,82547,7.720043
5585.611,82548,7.774423
5592.473,82549,7.772548
5616.825,82550,7.627151
5616.995,82551,7.723505
5623.303,82552,7.793175
5623.443,82553,8.640171
5636.410,82554,9.452910
5651.114,82555,12.037244
5651.182,82556,13.739747
5664.225,82557,10.177660
5664.302,82558,8.256051
5673.817,82559,8.011992
5697.109,82560,8.178665
5697.188,82561,8.002327
5704.405,82562,7.793680
5704.483,82563,7.856425
5716.158,82564,7.885418
5730.125,82565,7.726174
5730.214,82566,7.869407
5744.248,82567,7.940014
5744.329,82568,8.217971
5768.341,82569,8.431091
5768.491,82570,8.524344
5768.608,82571,8.665486
5794.678,82572,8.672337
5794.757,82573,8.800137
5808.335,82574,8.853940
5808.525,82575,8.873412
5808.680,82576,8.989312
5826.800,82577,7.523223
5828.241,82578,4.526570
5846.203,82579,4.595734
5846.278,82580,4.617804
5846.336,82581,4.549072
5871.995,82582,4.384130
5872.574,82583,4.443486
5885.004,82584,4.285251
5890.604,82585,4.108264
5890.693,82586,3.986523
5912.358,82587,3.727895
5912.521,82588,3.509511
5920.655,82589,3.572761
5920.739,82590,3.464074
5929.358,82591,3.557327
5943.167,82592,3.527613
5943.259,82593,3.445683
5967.144,82594,3.609183
5967.309,82595,3.594614
5967.445,82596,3.584517
5993.111,82597,3.539657
5993.185,82598,3.519752
5999.830,82599,3.614808
5999.927,82600,3.679141
6048.262,82601,5.316951
6048.446,82602,8.378442
6048.592,82603,8.335529
6048.729,82604,8.350026
6048.835,82605,8.379379
6072.266,82606,8.333438
6072.472,82607,8.127819
6072.599,82608,7.967348
6079.758,82609,8.018266
6079.844,82610,7.939077
6101.156,82611,7.908353
6101.243,82612,7.987831
6101.307,82613,7.992375
6128.772,82614,8.251652
6128.853,82615,8.415584
6133.091,82616,8.417748
6133.189,82617,9.071098
6146.095,82618,9.970527
6161.456,82619,11.813883
6161.582,82620,14.405863
6181.088,82621,11.407983
6183.157,82622,8.616659
6185.283,82623,7.785241
6212.469,82624,8.073584
6219.867,82625,7.675689
6220.468,82626,7.448361
6220.528,82627,7.696964
6228.924,82628,8.079570
6248.618,82629,8.520449
6248.785,82630,8.394885
6255.658,82631,8.620049
6255.807,82632,8.921662
6270.252,82633,8.952891
6270.441,82634,9.092085
6282.849,82635,9.121871
6296.255,82636,8.946904
6296.546,82637,8.942938
6308.343,82638,8.989528
6308.443,82639,9.446202
6332.289,82640,9.165505
6332.378,82641,8.901828
6332.446,82642,8.768836
6358.218,82643,8.752681
6358.294,82644,8.833746
6358.348,82645,8.765591
6376.082,82646,8.651061
6376.158,82647,8.524055
6397.287,82648,8.322908
6397.370,82649,8.270043
6397.432,82650,5.511246
6422.615,82651,3.589782
6422.714,82652,3.658297
6431.823,82653,3.608678
6431.974,82654,3.656494
6455.379,82655,3.525738
6455.524,82656,3.744627
6455.640,82657,3.761720
6494.670,82658,3.684045
6494.757,82659,3.796050
6494.818,82660,3.708999
6494.876,82661,3.891827
6494.939,82662,8.286270
6509.156,82663,8.149095
6509.327,82664,8.291968
6531.558,82665,8.247757
6531.734,82666,8.409166
6531.920,82667,8.450563
6556.175,82668,8.234343
6556.262,82669,8.512083
6565.128,82670,8.337116
6565.196,82671,8.418253
6576.478,82672,8.492466
6588.246,82673,8.455468
6588.367,82674,8.467296
6611.229,82675,8.470902
6611.359,82676,8.361637
6614.049,82677,8.396544
6629.364,82678,8.194027
6629.511,82679,8.100557
6652.294,82680,8.604399
6652.390,82681,8.990971
6652.448,82682,9.687089
6680.115,82683,12.109366
6680.189,82684,14.119107
6685.107,82685,10.362219
6685.178,82686,8.189122
6708.373,82687,7.917873
6708.535,82688,8.510064
6708.662,82689,8.624737
6726.506,82690,8.761985
6726.609,82691,8.665269
6749.045,82692,8.794223
6749.171,82693,8.734867
6749.213,82694,8.719144
6766.346,82695,8.707533
6766.387,82696,7.953645
6781.139,82697,4.223154
6781.218,82698,4.024459
6791.339,82699,4.045230
6805.475,82700,4.082878
6805.650,82701,4.174905
6818.491,82702,4.453006
6818.674,82703,4.521089
6831.131,82704,4.670597
6846.133,82705,4.817869
6846.199,82706,4.718990
6859.095,82707,4.824360
6859.161,82708,4.603740
6867.233,82709,4.367181
6891.416,82710,4.352612
6891.503,82711,4.402737
6898.096,82712,4.410526
6898.147,82713,4.141729
6925.346,82714,4.076098
6927.447,82715,3.997990
6927.515,82716,3.854252
6941.279,82717,4.791833
6941.418,82718,8.232323
6953.153,82719,8.235929
6953.229,82720,8.329255
6967.169,82721,8.242132
6985.643,82722,8.277039
6985.754,82723,8.216024
6995.074,82724,8.289083
6995.136,82725,8.257133
7002.085,82726,8.177655
7026.540,82727,8.305094
7026.653,82728,8.389909
7036.151,82729,8.645652
7036.221,82730,8.333005
7044.090,82731,8.142388
7058.571,82732,8.427773
7058.658,82733,8.864758
7082.342,82734,8.855743
7082.413,82735,8.821485
7082.470,82736,8.721741
7098.107,82737,8.685896
7098.181,82738,8.621203
7124.162,82739,8.592427
7125.217,82740,8.331202
7126.502,82741,7.933740
7147.091,82742,7.920469
7147.150,82743,7.918666
7153.112,82744,8.063847
7153.233,82745,8.869590
7180.083,82746,9.552438
7180.154,82747,12.062775
7180.202,82748,13.997149
7196.162,82749,11.037494
7196.240,82750,9.350281
7205.064,82751,8.936014
7218.358,82752,9.337948
7218.524,82753,9.175097
7241.450,82754,8.960391
7241.533,82755,8.997101
7241.632,82756,8.921950
7256.282,82757,9.038499
7256.446,82758,6.597975
7281.135,82759,3.978662
7281.215,82760,3.945125
7281.277,82761,3.679646
7305.356,82762,3.780399
7305.531,82763,3.839972
7314.495,82764,3.819922
7314.661,82765,3.858724
7327.175,82766,3.926157
7337.946,82767,4.050206
7338.111,82768,4.044797
7360.187,82769,4.288929
7360.239,82770,4.497577
7385.180,82771,4.426176
7385.280,82772,4.625593
7385.337,82773,4.647301
7391.333,82774,4.666053
7391.473,82775,4.585205
7405.309,82776,4.469377
7419.548,82777,4.440529
7420.901,82778,4.497433
7433.113,82779,4.239021
7433.185,82780,7.805796
7456.106,82781,8.582690
7456.160,82782,8.522829
7456.198,82783,8.500472
7472.372,82784,8.389693
7472.492,82785,8.481431
7496.572,82786,8.445515
7496.665,82787,8.400150
7496.763,82788,8.413349
7511.137,82789,8.333221
7511.213,82790,8.495062
7536.025,82791,8.222371
7536.089,82792,8.454530
7536.162,82793,8.730467
7560.229,82794,8.770856
7560.372,82795,8.918128
7566.220,82796,8.804464
7566.287,82797,8.986355
7586.300,82798,9.050255
7595.098,82799,8.865118
7595.179,82800,8.855598
7606.404,82801,8.637358
7606.482,82802,8.426907
7620.704,82803,8.389981
7638.933,82804,8.225904
7639.006,82805,8.265427
7649.063,82806,8.256412
7649.126,82807,8.208451
7672.829,82808,8.480782
7672.895,82809,8.995298
7672.965,82810,10.224683
7689.162,82811,12.184516
7689.264,82812,15.055823
7703.184,82813,12.717207
7703.330,82814,9.676920
7711.236,82815,8.682434
7735.235,82816,9.002582
7735.311,82817,5.310748
7741.436,82818,4.541066
7741.528,82819,4.212408
7755.216,82820,4.234477
7769.102,82821,4.173823
7769.159,82822,4.330255
7783.185,82823,4.470026
7783.264,82824,4.370066
7791.128,82825,4.391702
7815.324,82826,4.463752
7815.608,82827,4.552317
7835.264,82828,4.522675
7835.464,82829,4.356940
7835.602,82830,4.683651
7849.297,82831,4.708749
7849.371,82832,4.632661
7863.324,82833,4.898501
7863.477,82834,4.933047
7886.393,82835,4.968747
7886.567,82836,4.898213
7886.699,82837,4.902035
7901.138,82838,4.909752
7901.196,82839,4.638719
7927.948,82840,4.640810
7928.016,82841,4.511424
7928.070,82842,6.113823
7942.730,82843,8.856825
7942.827,82844,8.673491
7959.237,82845,8.769125
7959.352,82846,8.711644
7967.232,82847,8.502996
7981.165,82848,8.548216
7981.233,82849,8.506746
8005.559,82850,8.624737
8005.614,82851,8.587883
8008.285,82852,8.692027
8026.776,82853,8.664043
8026.874,82854,8.938971
8046.189,82855,9.432932
8046.283,82856,9.322514
8046.355,82857,9.351218
8064.390,82858,9.341842
8064.553,82859,9.118770
8078.489,82860,8.835693
8078.716,82861,8.664260
8086.047,82862,8.544105
8110.561,82863,8.726933
8110.646,82864,8.649619
8117.028,82865,8.629209
8117.082,82866,8.616299
8141.122,82867,8.789174
8141.405,82868,9.200845
8141.588,82869,9.079031
8156.239,82870,9.193560
8156.337,82871,9.266836
8184.473,82872,9.519622
8184.845,82873,9.957905
8184.993,82874,10.463983
8196.156,82875,12.445020
8196.268,82876,15.263894
8223.974,82877,12.544836
8224.199,82878,9.504982
8224.332,82879,8.422724
8246.323,82880,8.684093
8246.447,82881,8.873701
8251.144,82882,8.698878
8251.221,82883,8.481359
8265.280,82884,8.468450
8293.101,82885,8.599855
8293.175,82886,8.380173
8293.219,82887,8.392650
8293.260,82888,8.537181
8302.285,82889,8.441981
8316.297,82890,8.699239
8316.369,82891,8.858628
8340.115,82892,8.966377
8340.188,82893,9.120068
8340.239,82894,9.184834
8367.118,82895,9.056169
8367.208,82896,9.343069
8373.234,82897,9.221183
8373.428,82898,9.252051
8396.168,82899,9.232506
8396.267,82900,9.435528
8396.347,82901,9.550995
8411.282,82902,9.022199
8411.363,82903,9.054798
8435.150,82904,9.154110
8435.269,82905,8.926566
8435.376,82906,8.645292
8460.186,82907,8.665919
8460.276,82908,8.761408
8467.285,82909,8.523983
8467.415,82910,8.688348
8480.114,82911,8.476671
8494.163,82912,8.391352
8494.259,82913,8.594951
8506.308,82914,8.591705
8506.445,82915,8.633175
8521.107,82916,8.498164
8534.199,82917,8.188545
8534.331,82918,8.592066
8548.160,82919,8.571006
8548.311,82920,8.650268
8572.622,82921,8.556222
8575.597,82922,8.494846
8575.658,82923,8.589181
8588.559,82924,8.424239
8591.448,82925,8.671111
8614.485,82926,8.849180
8614.579,82927,8.789319
8614.649,82928,8.975825
8630.685,82929,8.983903
8630.827,82930,9.001068
8653.120,82931,9.053212
8653.228,82932,9.015997
8653.297,82933,9.035470
8675.516,82934,9.132618
8675.676,82935,8.844564
8690.172,82936,8.875937
8690.557,82937,5.446193
8690.617,82938,6.032109
8715.199,82939,8.334736
8715.323,82940,10.538412
8722.291,82941,7.097778
8736.364,82942,4.765004
8739.122,82943,4.020997
8756.366,82944,3.935389
8756.473,82945,4.030084
8763.962,82946,3.960415
8764.074,82947,3.861464
8771.279,82948,3.943539
8800.040,82949,3.962651
8800.179,82950,4.037225
8801.022,82951,3.906757
8801.076,82952,4.527147
8845.153,82953,4.705287
8845.240,82954,3.789126
8845.304,82955,3.843650
8849.118,82956,4.203393
8849.198,82957,4.265922
8857.061,82958,4.359464
8857.141,82959,4.346121
8870.173,82960,4.625376
8886.122,82961,8.803599
8887.918,82962,9.127281
8898.309,82963,9.569098
8898.401,82964,9.302897
8916.343,82965,9.321648
8922.154,82966,9.449376
8922.214,82967,8.992774
8945.140,82968,9.005684
8945.207,82969,8.954189
8945.254,82970,8.768980
8965.638,82971,9.033955
8965.718,82972,8.627838
8982.455,82973,8.621347
8982.599,82974,8.399790
8990.107,82975,8.906588
9004.698,82976,9.010371
9004.786,82977,8.818600
9019.241,82978,8.621275
9019.351,82979,8.410464
9042.219,82980,8.534441
9042.332,82981,8.510352
9042.417,82982,8.445154
9057.359,82983,8.508982
9057.526,82984,8.822711
9081.123,82985,8.800498
9081.193,82986,8.772370
9081.247,82987,8.855166
9096.194,82988,8.767105
9096.355,82989,9.285227
9120.793,82990,9.286309
9121.044,82991,9.167236
9121.139,82992,9.164207
9145.182,82993,9.353887
9145.269,82994,9.228035
9151.149,82995,9.164640
9151.231,82996,9.089705
9165.324,82997,8.686257
9179.515,82998,4.707595
9194.474,82999,4.551091
9194.566,83000,4.467430
9194.627,83001,4.395885
9202.369,83002,5.298415
9216.197,83003,6.568117
9216.304,83004,14.315134
9241.356,83005,14.630233
9241.435,83006,10.523772
9263.173,83007,8.715466
9263.268,83008,8.554419
9263.325,83009,8.935365
9273.668,83010,8.616299
9274.026,83011,8.717630
9296.147,83012,8.771649
9296.227,83013,8.852786
9296.287,83014,8.852425
9311.191,83015,8.840453
9311.278,83016,8.957578
9335.112,83017,8.742079
9335.203,83018,8.794872
9335.275,83019,9.010011
9360.736,83020,9.021911
9360.875,83021,9.189305
9367.485,83022,9.317826
9367.588,83023,9.395862
9383.278,83024,9.521570
9394.197,83025,9.176684
9394.315,83026,9.283352
9408.394,83027,9.395717
9408.573,83028,9.697763
9416.427,83029,9.710023
9441.185,83030,9.583450
9441.267,83031,9.527411
9450.401,83032,9.451395
9450.502,83033,9.084368
9458.170,83034,8.980152
9472.237,83035,8.823288
9472.338,83036,8.856464
9496.314,83037,9.076218
9496.584,83038,8.886827
9496.770,83039,8.945678
9511.140,83040,9.026382
9511.223,83041,9.029412
9536.040,83042,8.926927
9536.134,83043,8.866705
9559.133,83044,8.750229
9559.218,83045,8.704648
9559.283,83046,9.096701
9566.107,83047,9.138748
9566.206,83048,9.287535
9580.206,83049,9.475772
9596.888,83050,9.493947
9597.068,83051,9.600398
9609.127,83052,9.629247
9609.192,83053,9.524671
9615.135,83054,9.667399
9640.301,83055,9.438918
9648.095,83056,9.418436
9648.192,83057,8.271485
9648.255,83058,4.757792
9655.076,83059,4.707667
9680.157,83060,4.519574
9683.831,83061,4.644921
9684.071,83062,4.797459
9696.104,83063,4.823062
9696.172,83064,4.610447
9710.182,83065,4.497072
9710.259,83066,5.208624
9724.363,83067,6.462170
9739.677,83068,12.604625
9739.813,83069,14.241425
9750.100,83070,9.964757
9750.162,83071,8.748642
9764.253,83072,8.738906
9781.894,83073,9.061506
9781.991,83074,9.083791
9794.150,83075,9.038138
9794.242,83076,9.023714
9799.034,83077,9.138532
9827.091,83078,9.068718
9827.180,83079,9.009506
9830.039,83080,9.141344
9830.118,83081,9.153533
9854.244,83082,9.272461
9854.324,83083,9.328067
9854.385,83084,9.371557
9869.305,83085,9.248373
9869.429,83086,9.202287
9895.259,83087,9.342347
9895.416,83088,9.490774
9895.530,83089,9.827149
9910.311,83090,9.840708
9910.462,83091,9.737357
9935.655,83092,9.794766
9935.749,83093,9.780630
9935.817,83094,9.665452
9958.248,83095,9.978604
9958.409,83096,9.906411
9965.238,83097,9.702667
9965.305,83098,9.358430
9978.266,83099,9.237050
9991.195,83100,9.067059
9991.290,83101,9.102903
10005.182,83102,8.943731
10005.302,83103,8.962266
10014.357,83104,8.933923
10038.175,83105,8.777419
10038.264,83106,8.667794
10044.070,83107,8.903848
10044.143,83108,9.168101
10058.218,83109,9.335856
10071.505,83110,9.432860
10071.675,83111,9.492288
10086.123,83112,9.629103
10100.084,83113,9.855493
10100.173,83114,9.965695
10100.236,83115,9.770389
10109.345,83116,9.690190
10142.172,83117,9.805224
10142.262,83118,9.813951
10142.314,83119,9.977595
10142.372,83120,9.666173
10162.186,83121,9.402713
10193.557,83122,9.286814
10195.225,83123,8.966810
10212.190,83124,8.934644
10212.282,83125,5.159076
10242.145,83126,4.210677
10251.135,83127,4.201806
10251.258,83128,4.263398
10277.153,83129,4.997163
10277.790,83130,6.264845
10301.259,83131,9.540826
10301.337,83132,9.318836
10301.393,83133,5.146022
10330.709,83134,4.044148
10330.804,83135,4.235920
10357.180,83136,4.502770
10357.296,83137,4.529887
10357.388,83138,4.384779
10364.889,83139,4.525344
10365.039,83140,4.604101
10388.543,83141,4.526426
10388.706,83142,4.613909
10388.769,83143,4.532051
10413.235,83144,4.616433
10413.337,83145,4.565732
10439.123,83146,5.176530
10439.238,83147,9.145311
10439.309,83148,9.054149
10458.144,83149,9.304700
10458.211,83150,9.376028
10462.053,83151,9.354969
10462.127,83152,9.348189
10464.039,83153,9.453054
10489.114,83154,9.592609
10489.190,83155,9.759427
10514.225,83156,9.625930
10514.313,83157,9.611577
10514.382,83158,9.479883
10544.574,83159,9.370186
10544.659,83160,9.390669
10572.255,83161,9.202071
10572.670,83162,9.233372
10572.742,83163,8.917046
10596.318,83164,8.685968
10597.020,83165,8.765158
10628.821,83166,8.413998
10629.809,83167,8.418397
10632.214,83168,8.536388
10646.536,83169,8.448977
10662.664,83170,8.689791
10662.764,83171,8.683372
10662.837,83172,8.829707
10665.817,83173,8.878749
10665.887,83174,9.074199
10666.032,83175,9.109034
10666.102,83176,8.974311
10666.170,83177,9.046649
10692.937,83178,9.024652
10693.048,83179,4.833015
10693.141,83180,4.406704
10718.210,83181,4.143748
10718.312,83182,4.212119
10747.098,83183,3.978229
10747.221,83184,3.701210
10747.292,83185,3.618414
10765.299,83186,3.546942
10765.370,83187,3.771817
10770.356,83188,3.791001
10770.777,83189,3.901708
10770.996,83190,3.392529
10795.133,83191,3.175227
10795.209,83192,3.914690
10821.253,83193,4.628117
10821.503,83194,7.169900
10821.717,83195,12.924340
10846.130,83196,10.203696
10846.190,83197,7.955448
10865.121,83198,7.540461
10865.194,83199,7.886212
10865.247,83200,7.726606
10872.491,83201,7.573348
10878.007,83202,7.564766
10898.227,83203,7.463290
10931.364,83204,7.475118
10931.548,83205,7.535196
10931.680,83206,7.406242
10931.805,83207,7.539162
10951.180,83208,7.580993
10964.235,83209,7.559789
10964.317,83210,7.664654
10964.371,83211,7.625853
10964.422,83212,7.702878
10970.362,83213,7.783727
10970.721,83214,7.750695
10971.799,83215,7.725525
10996.245,83216,8.087719
10996.493,83217,8.189483
10996.670,83218,8.100918
11021.174,83219,8.119814
11021.300,83220,8.204484
11046.166,83221,8.142748
11046.230,83222,7.950544
11046.274,83223,7.573060
11080.618,83224,7.342631
11082.316,83225,7.096840
11082.974,83226,6.912065
11083.040,83227,6.645215
11083.101,83228,6.524772
11109.855,83229,6.640455
11109.958,83230,6.661009
11133.225,83231,6.694618
11133.340,83232,6.789819
11133.420,83233,6.927571
11160.490,83234,7.117828
11160.917,83235,7.103908
11161.043,83236,7.204302
11161.206,83237,7.458314
11178.419,83238,7.649725
11178.499,83239,7.610346
11178.556,83240,7.646191
11178.612,83241,7.454780
11178.667,83242,7.683910
11182.036,83243,4.120237
11182.113,83244,3.408180
11182.186,83245,3.185540
11207.358,83246,2.917536
11207.444,83247,2.888399
11235.720,83248,2.904050
11236.169,83249,2.791756
11239.526,83250,2.709249
11258.221,83251,2.704777
11258.373,83252,2.850824
11278.795,83253,2.737593
11282.393,83254,3.036393
11282.491,83255,3.877691
11304.201,83256,4.570420
11304.307,83257,7.383957
11304.368,83258,8.801940
11330.692,83259,6.835544
11330.807,83260,4.040686
11355.570,83261,3.104908
11355.659,83262,3.641782
11355.721,83263,4.024171
11393.701,83264,3.943322
11393.853,83265,4.055832
11396.165,83266,4.353334
11396.236,83267,8.638224
11421.151,83268,8.858267
11446.201,83269,8.753835
11446.287,83270,8.944164
11446.348,83271,8.962988
11446.411,83272,9.085234
11476.389,83273,9.365931
11490.121,83274,9.415190
11490.197,83275,9.553519
11490.255,83276,9.629896
11490.310,83277,9.803565
11516.222,83278,9.976008
11516.289,83279,10.116934
11516.337,83280,10.281010
11545.277,83281,10.308921
11546.295,83282,10.354935
11596.523,83283,10.527306
11596.966,83284,10.369936
11597.036,83285,10.369720
11606.549,83286,10.140085
11606.676,83287,9.959420
11606.750,83288,9.843160
11606.819,83289,9.693075
11630.466,83290,9.802772
11630.559,83291,9.880735
11630.629,83292,9.757696
11655.190,83293,10.126526
11655.313,83294,10.196484
11655.375,83295,10.448188
11681.128,83296,10.333803
11681.201,83297,10.330341
11713.314,83298,10.612986
11713.398,83299,10.491966
11713.439,83300,10.513314
11720.830,83301,9.906194
11720.927,83302,6.195176
11720.982,83303,6.261167
11721.032,83304,6.059948
11748.197,83305,6.155293
11748.351,83306,6.450991
11748.476,83307,6.438009
11775.427,83308,6.662885
11775.563,83309,6.543884
11799.098,83310,6.690435
11799.168,83311,6.541792
11799.217,83312,6.227919
11828.392,83313,6.433249
11828.464,83314,6.395818
11828.521,83315,6.636055
11828.575,83316,6.665697
11854.172,83317,6.784698
11854.257,83318,7.767499
11854.321,83319,8.686473
11884.599,83320,15.687897
11886.456,83321,17.109847
11886.525,83322,13.120295
11909.226,83323,11.672381
11909.371,83324,11.332183
11915.147,83325,11.712841
11915.220,83326,11.683992
11920.880,83327,11.603432
11926.426,83328,11.552731
11926.486,83329,11.456593
11949.171,83330,11.574007
11949.374,83331,11.601918
11949.464,83332,11.611726
11949.513,83333,11.773495
11949.561,83334,11.713057
11975.311,83335,11.960507
11976.452,83336,12.025128
11977.252,83337,12.191440
11977.313,83338,12.623737
11977.372,83339,12.807936
12003.022,83340,12.930038
12003.123,83341,12.955641
12003.190,83342,12.922249
12003.256,83343,12.879408
12035.104,83344,12.829717
12035.175,83345,12.764807
12035.215,83346,12.617679
12040.004,83347,12.444299
12040.051,83348,12.146292
12040.088,83349,11.959064
12066.453,83350,11.934254
12066.503,83351,11.994043
12068.292,83352,12.054770
12068.344,83353,11.881750
12092.361,83354,11.899203
12101.179,83355,12.018637
12101.234,83356,12.303301
12103.114,83357,12.366624
12103.164,83358,12.493774
12103.205,83359,12.409897
12133.039,83360,12.285992
12135.722,83361,12.519161
12154.226,83362,12.555943
12154.298,83363,12.445380
12154.349,83364,12.327966
12161.223,83365,12.222741
12161.372,83366,12.196200
12161.490,83367,12.119463
12186.550,83368,12.279284
12186.699,83369,11.978176
12186.812,83370,11.876269
12186.997,83371,11.823187
12211.163,83372,11.748181
12211.283,83373,11.695315
12211.354,83374,11.659759
12236.638,83375,11.477724
12236.722,83376,11.695892
12257.241,83377,11.749767
12257.335,83378,11.807465
12257.400,83379,11.918316
12262.114,83380,12.701773
12262.197,83381,13.875552
12287.266,83382,16.832323
12287.347,83383,18.100437
12287.407,83384,13.929716
12313.140,83385,12.220649
12313.215,83386,12.065660
12338.163,83387,12.337054
12338.261,83388,12.289814
12338.337,83389,12.274308
12368.161,83390,12.126098
12368.250,83391,11.962887
12374.340,83392,11.912906
12376.547,83393,12.141893
12376.597,83394,12.031546
12399.168,83395,11.793617
12399.227,83396,11.904324
12426.346,83397,12.047053
12426.417,83398,12.191368
12426.469,83399,12.309936
12450.324,83400,12.265942
12450.403,83401,12.341669
12470.379,83402,12.500770
12470.432,83403,12.656769
12470.474,83404,12.620636
12476.068,83405,12.523921
12476.123,83406,12.559116
12501.318,83407,12.346790
12501.392,83408,12.424826
12527.071,83409,12.319095
12527.158,83410,11.997505
12527.214,83411,11.990581
12560.371,83412,11.787126
12560.545,83413,11.688392
12584.188,83414,11.668775
12584.270,83415,11.664447
12584.338,83416,11.712841
12610.318,83417,11.515083
12610.405,83418,11.478951
12647.394,83419,11.323312
12647.463,83420,11.345814
12647.512,83421,11.350141
12651.098,83422,11.151735
12651.153,83423,11.242752
12676.485,83424,11.135435
12676.562,83425,11.090936
12676.624,83426,11.287251
12703.379,83427,11.235035
12703.446,83428,11.407911
12727.623,83429,11.441303
12729.156,83430,11.482052
12729.218,83431,11.413248
12750.250,83432,11.313287
12750.319,83433,11.175679
12755.245,83434,11.165798
12784.304,83435,11.092090
12784.410,83436,11.119857
12806.487,83437,11.057544
12806.569,83438,11.105793
12806.628,83439,11.028551
12806.685,83440,10.966671
12806.748,83441,11.221837
12836.349,83442,11.954737
12836.432,83443,13.289348
12854.128,83444,16.477196
12854.201,83445,15.924672
12854.259,83446,12.030465
12880.672,83447,10.558029
12887.188,83448,10.628348
12887.264,83449,10.793939
12887.333,83450,10.659865
12906.231,83451,10.485403
12936.769,83452,10.478551
12936.847,83453,10.357387
12950.062,83454,10.374047
12950.143,83455,10.358325
12950.197,83456,10.357315
12956.049,83457,10.328178
12956.136,83458,10.249133
12956.209,83459,10.662678
12956.282,83460,10.805479
12984.976,83461,10.840097
12988.197,83462,10.883947
12993.531,83463,10.745834
13009.575,83464,10.794661
13009.654,83465,10.844136
13045.219,83466,10.480931
13045.314,83467,10.457348
13045.375,83468,10.437009
13064.936,83469,10.304017
13065.027,83470,10.165471
13089.370,83471,9.988846
13090.783,83472,10.068107
13091.097,83473,10.105683
13115.301,83474,9.908502
13115.451,83475,9.759066
13151.301,83476,9.674684
13151.421,83477,9.748825
13151.486,83478,9.817989
13151.549,83479,9.930355
13151.610,83480,9.872946
13171.671,83481,9.864364
13197.118,83482,9.841573
13197.196,83483,9.815970
13197.252,83484,9.809551
13197.306,83485,8.337477
13224.128,83486,5.365128
13249.307,83487,5.070944
13249.392,83488,4.888116
13249.454,83489,4.782746
13249.514,83490,4.613260
13249.574,83491,4.670597
13256.211,83492,4.730530
13256.327,83493,4.734136
13280.309,83494,4.645570
13280.583,83495,4.508395
13280.685,83496,4.461660
13306.200,83497,4.392135
13306.294,83498,4.278327
13332.183,83499,4.361267
13332.269,83500,4.242050
13332.338,83501,4.263398
13352.454,83502,4.239381
13352.609,83503,4.305661
13354.184,83504,5.095177
13354.364,83505,5.672150
13354.444,83506,8.714456
13359.133,83507,14.552197
13359.209,83508,12.059530
13393.632,83509,9.483706
13393.746,83510,8.735516
13410.092,83511,9.142715
13410.183,83512,9.166371
13410.257,83513,8.987797
13441.496,83514,8.871393
13441.606,83515,8.802084
13456.152,83516,9.004890
13456.251,83517,8.983831
13456.331,83518,8.883149
13483.239,83519,8.968974
13483.434,83520,8.986499
13483.532,83521,9.066554
13508.194,83522,9.062660
13508.285,83523,9.024579
13508.349,83524,9.173150
13508.412,83525,9.314941
13538.344,83526,9.429614
13538.996,83527,9.448150
13539.046,83528,9.216639
13564.170,83529,9.582729
13564.256,83530,9.541042
13564.314,83531,9.433221
13590.125,83532,9.388649
13590.209,83533,9.318259
13615.479,83534,9.204307
13615.613,83535,9.077445
13615.749,83536,8.962483
13615.882,83537,8.856897
13616.031,83538,8.855526
13649.161,83539,8.832087
13649.242,83540,8.752897
13649.300,83541,8.779871
13649.358,83542,8.747344
13655.246,83543,4.349800
13655.323,83544,4.038595
13655.384,83545,3.825836
13681.382,83546,3.836438
13681.532,83547,4.007727
13681.594,83548,3.831894
13706.426,83549,3.758330
13706.525,83550,3.869037
13706.607,83551,3.965391
13706.671,83552,4.043715
13736.152,83553,3.982701
13736.248,83554,4.152619
13736.325,83555,4.224164
13742.442,83556,4.023521
13742.597,83557,3.876177
13744.119,83558,3.730852
13769.122,83559,3.760277
13769.202,83560,3.771456
13769.266,83561,3.557327
13769.329,83562,3.724433
13795.133,83563,3.665365
13821.625,83564,3.689815
13821.750,83565,3.688012
13821.853,83566,3.952842
13822.147,83567,4.797747
13849.283,83568,6.770706
13849.368,83569,14.083046
13849.424,83570,12.224760
13875.329,83571,8.824370
13878.771,83572,7.847699
13897.237,83573,8.006510
13897.372,83574,8.173184
13899.015,83575,7.975210
13929.195,83576,7.896813
13929.294,83577,7.901141
13952.153,83578,7.887798
13952.222,83579,7.866955
13954.031,83580,7.920109
13958.045,83581,8.078344
13958.115,83582,8.364883
13982.609,83583,8.466791
13982.697,83584,8.635411
13984.554,83585,8.874999
14009.450,83586,8.902982
14009.603,83587,8.907959
14040.750,83588,8.674501
14040.830,83589,8.739843
14040.890,83590,8.790256
14044.143,83591,8.458425
14044.243,83592,8.494125
14049.051,83593,8.439745
14049.124,83594,8.457992
14100.193,83595,8.337982
14125.169,83596,8.288145
14125.251,83597,8.493908
14154.264,83598,8.327380
14154.380,83599,8.097744
14154.472,83600,8.197056
14181.908,83601,8.216024
14182.039,83602,8.099115
14206.151,83603,8.203186
14206.233,83604,8.294059
14232.285,83605,8.380605
14232.446,83606,8.244151
14232.577,83607,8.195397
14259.526,83608,7.367441
14259.603,83609,3.753787
14265.327,83610,3.665077
14265.492,83611,3.456790
14265.624,83612,3.459242
14265.738,83613,3.353728
14265.780,83614,3.211576
14291.286,83615,3.354449
14316.309,83616,3.261556
14316.397,83617,3.250450
14318.082,83618,3.024565
14318.146,83619,3.173063
14344.332,83620,7.406098
14347.151,83621,7.321427
14347.237,83622,7.458747
14350.342,83623,7.503390
14350.484,83624,7.432062
14389.283,83625,7.503895
14389.518,83626,7.458530
14389.675,83627,7.923715
14412.176,83628,8.718495
14412.256,83629,10.222736
14440.074,83630,13.639715
14440.171,83631,12.407877
14440.238,83632,8.651206
14467.222,83633,7.665159
14467.330,83634,7.766418
14477.329,83635,7.947731
14479.166,83636,7.807238
14497.164,83637,7.828514
14500.293,83638,7.675472
14500.449,83639,7.756537
14524.677,83640,7.863854
14525.037,83641,7.847410
14553.868,83642,7.876619
14553.970,83643,7.966483
14554.026,83644,7.895948
14577.498,83645,7.924148
14577.691,83646,7.912825
14578.386,83647,8.113178
14584.623,83648,8.428350
14584.716,83649,8.492538
14584.787,83650,8.504799
14584.883,83651,8.489509
14611.302,83652,8.565814
14611.386,83653,8.609808
14611.445,83654,8.563939
14620.433,83655,8.593941
14620.534,83656,8.314975
14644.150,83657,8.329327
14644.243,83658,8.209172
14644.311,83659,8.055697
14677.663,83660,8.003554
14677.790,83661,7.936480
14677.857,83662,7.972397
14679.208,83663,8.137700
14679.287,83664,7.962877
14679.351,83665,8.039326
14679.414,83666,7.994610
14704.108,83667,7.999443
14704.191,83668,7.786395
14730.014,83669,3.420152
14730.102,83670,3.329279
14730.170,83671,3.394693
14755.460,83672,3.287953
14755.538,83673,3.310960
14780.076,83674,3.266244
14780.135,83675,3.372984
14780.177,83676,3.354233
14789.116,83677,3.489821
14789.191,83678,3.566487
14789.250,83679,3.319614
14813.636,83680,3.306128
14814.728,83681,3.165130
14841.853,83682,3.056226
14842.042,83683,3.005525
14842.090,83684,3.018651
14878.178,83685,4.324124
14878.348,83686,7.423984
14899.161,83687,7.481465
14899.241,83688,7.600754
14899.299,83689,8.307907
14899.355,83690,9.139686
14899.411,83691,11.575810
14928.257,83692,13.885794
14928.608,83693,10.436937
14929.310,83694,8.083681
14929.374,83695,7.521420
14951.199,83696,7.776082
14951.284,83697,7.702301
14951.346,83698,7.662058
14981.106,83699,7.498558
14981.181,83700,7.485937
14981.233,83701,7.459901
14987.045,83702,7.496538
14987.128,83703,7.559284
14989.030,83704,7.570030
14989.102,83705,7.577387
15015.279,83706,7.794257
15015.360,83707,7.936264
15015.414,83708,7.942394
15041.480,83709,8.089811
15041.635,83710,8.334087
15066.384,83711,8.434552
15096.135,83712,8.499822
15096.216,83713,8.445875
15103.107,83714,8.698734
15103.200,83715,8.199075
15127.490,83716,7.858589
15153.254,83717,7.932297
15153.354,83718,7.802262
15153.438,83719,7.652393
15180.809,83720,7.540605
15180.966,83721,7.642008
15196.080,83722,7.725380
15196.151,83723,7.754373
15196.205,83724,7.768437
15224.828,83725,7.825125
15230.864,83726,7.931143
15231.155,83727,8.068751
15231.512,83728,8.243214
15250.156,83729,8.146787
15282.838,83730,8.040047
15283.023,83731,8.027354
15283.284,83732,7.996341
15283.418,83733,3.919450
15291.758,83734,3.488307
15293.398,83735,3.352574
15293.455,83736,3.214677
15315.219,83737,3.035095
15315.368,83738,3.270572
15315.488,83739,3.375941
15315.607,83740,3.118395
15315.743,83741,2.966074
15341.600,83742,2.893592
15341.763,83743,2.952299
15341.904,83744,2.818081
15371.170,83745,2.763773
15371.809,83746,2.871090
15374.683,83747,2.692228
15377.249,83748,3.906540
15397.392,83749,7.238199
15401.120,83750,7.298276
15401.345,83751,7.860753
15426.873,83752,8.669164
15426.973,83753,10.399650
15427.043,83754,13.118059
15451.233,83755,10.872768
15451.368,83756,8.304589
15451.479,83757,7.464012
15451.589,83758,7.875970
15478.994,83759,7.904026
15479.449,83760,7.693431
15479.509,83761,7.770961
15486.305,83762,7.738507
15486.379,83763,7.883543
15491.060,83764,7.887366
15491.137,83765,7.717231
15491.200,83766,7.965185
15520.275,83767,7.919604
15520.374,83768,8.053245
15545.167,83769,8.068174
15545.274,83770,7.950760
15545.356,83771,8.311585
15577.482,83772,8.350026
15577.708,83773,8.561703
15584.982,83774,8.593076
15585.437,83775,8.516843
15588.174,83776,8.689430
15609.187,83777,8.638080
15609.282,83778,8.682795
15635.170,83779,8.531628
15635.267,83780,8.484244
15635.339,83781,8.205422
15660.153,83782,8.120174
15660.239,83783,8.158254
15677.341,83784,8.077767
15677.686,83785,8.005212
15680.839,83786,8.195109
15705.331,83787,8.081156
15705.487,83788,8.160779
15705.606,83789,7.604793
15705.739,83790,3.728111
15730.932,83791,3.661110
15731.011,83792,3.491336
15731.071,83793,3.640988
15763.283,83794,3.485927
15767.074,83795,3.497899
15767.142,83796,3.490759
15767.197,83797,3.300863
15770.831,83798,3.427797
15794.284,83799,3.413589
15794.544,83800,3.446621
15794.672,83801,3.619857
15794.801,83802,3.414815
15821.661,83803,3.630675
15845.233,83804,3.465372
15845.314,83805,3.369018
15845.366,83806,3.368873
15845.417,83807,3.289107
15864.332,83808,3.403420
15870.474,83809,3.406809
15870.564,83810,3.384235
15870.631,83811,3.479147
15870.696,83812,3.649931
15896.142,83813,4.576766
15896.242,83814,5.754152
15896.321,83815,12.527455
15925.644,83816,13.344376
15926.105,83817,9.201566
15926.178,83818,7.837746
15927.916,83819,7.717086
15928.053,83820,7.962300
15955.119,83821,7.903160
15955.189,83822,7.719755
15955.241,83823,7.809691
15955.291,83824,7.829380
15961.007,83825,7.787261
15964.043,83826,7.931071
15964.108,83827,7.931143
15990.129,83828,8.192584
15990.208,83829,8.219269
16014.114,83830,8.312306
16014.172,83831,8.490735
16014.216,83832,8.535667
16041.148,83833,8.841607
16041.240,83834,8.730035
16066.189,83835,8.704143
16066.298,83836,8.750012
16066.382,83837,8.869374
16075.779,83838,8.933418
16075.850,83839,8.757585
16076.385,83840,8.634690
16098.957,83841,8.497947
16099.048,83842,8.514896
16127.228,83843,8.172607
16127.335,83844,8.241771
16127.506,83845,8.208307
16127.562,83846,8.300839
16127.733,83847,8.231746
16152.281,83848,8.306536
16152.499,83849,8.322764
16176.796,83850,8.329111
16177.021,83851,8.566463
16180.211,83852,8.612981
16180.280,83853,8.462319
16180.373,83854,8.451789
16204.112,83855,8.407435
16204.195,83856,8.511001
16232.932,83857,7.518968
16235.648,83858,3.937264
16235.866,83859,3.811628
16255.294,83860,3.663779
16255.602,83861,3.559491
16276.479,83862,3.557255
16276.739,83863,3.517516
16276.955,83864,3.538287
16278.184,83865,3.374210
16278.279,83866,3.382288
16302.416,83867,3.233140
16328.422,83868,3.103971
16328.524,83869,3.127987
16328.629,83870,3.136858
16328.704,83871,3.324519
16355.495,83872,3.255498
16380.095,83873,3.475758
16380.164,83874,8.539561
16380.217,83875,9.438413
16380.267,83876,12.136556
16389.251,83877,14.337852
16389.477,83878,10.616592
16389.593,83879,8.468666
16412.272,83880,7.881019
16412.341,83881,8.364667
16414.160,83882,8.291824
16439.384,83883,8.067886
16439.483,83884,8.066299
16464.135,83885,7.886716
16464.194,83886,8.038244
16464.237,83887,8.043942
16492.165,83888,8.095220
16492.260,83889,8.208090
16517.336,83890,8.194171
16517.389,83891,8.295358
16517.429,83892,8.361565
16544.177,83893,8.721596
16544.258,83894,9.042538
16569.674,83895,8.831726
16569.734,83896,9.099947
16569.783,83897,9.131464
16596.348,83898,9.184112
16596.436,83899,9.168174
16621.767,83900,9.095259
16621.949,83901,9.175746
16622.006,83902,8.959598
16647.179,83903,8.837135
16647.257,83904,8.680271
16672.443,83905,8.216384
16672.693,83906,8.296944
16675.509,83907,8.391424
16696.135,83908,8.319446
16722.698,83909,8.557664
16725.489,83910,8.576920
16725.546,83911,8.509559
16725.601,83912,8.576776
16747.156,83913,8.593004
16747.232,83914,8.410392
16773.969,83915,4.990745
16774.311,83916,3.915700
16774.476,83917,3.875023
16797.163,83918,3.944548
16797.257,83919,3.933946
16802.138,83920,3.860238
16802.201,83921,4.027993
16828.205,83922,4.032248
16854.782,83923,4.006501
16854.863,83924,4.380451
16854.935,83925,4.311215
16855.014,83926,4.361123
16880.143,83927,4.217745
16880.223,83928,3.990129
16880.286,83929,3.975993
16910.454,83930,3.823240
16910.506,83931,3.812854
16915.300,83932,3.875528
16915.351,83933,3.954213
16915.387,83934,4.670452
16942.835,83935,8.366974
16942.999,83936,8.986643
16943.119,83937,9.880375
16968.319,83938,12.298973
16968.403,83939,14.598211
16968.445,83940,11.086681
16968.483,83941,8.613053
16995.221,83942,8.125872
16995.296,83943,8.383058
16995.350,83944,8.353560
17015.214,83945,8.290453
17015.297,83946,8.308556
17040.175,83947,8.243069
17040.291,83948,8.261749
17040.381,83949,8.342020
17066.272,83950,8.421138
17066.387,83951,8.427124
17088.692,83952,8.542302
17088.775,83953,8.657769
17091.157,83954,9.011309
17124.452,83955,9.130093
17128.320,83956,9.169039
17128.472,83957,9.227890
17128.545,83958,9.184112
17132.123,83959,9.221471
17132.206,83960,9.251835
17132.272,83961,9.298425
17158.536,83962,9.123747
17158.718,83963,8.964430
17182.179,83964,8.921734
17185.379,83965,9.026527
17210.351,83966,8.835332
17210.437,83967,8.489148
17210.494,83968,8.599639
17229.125,83969,8.652360
17229.330,83970,8.692748
17230.309,83971,8.724193
17252.177,83972,8.866489
17252.250,83973,8.972291
17282.565,83974,9.132690
17284.939,83975,9.162981
17285.016,83976,9.072180
17305.129,83977,9.199691
17305.233,83978,8.920652
17305.318,83979,9.354752
17305.400,83980,9.039653
17305.471,83981,8.815282
17333.647,83982,8.669092
17335.274,83983,8.536749
17335.337,83984,8.430730
17335.396,83985,8.308989
17340.075,83986,8.381254
17340.138,83987,8.506962
17340.179,83988,8.256556
17366.153,83989,8.357166
17366.235,83990,8.285621
17392.919,83991,8.204556
17393.080,83992,8.261028
17393.198,83993,8.096374
17425.197,83994,8.215591
17426.740,83995,8.267663
17428.057,83996,8.329615
17428.239,83997,8.595095
17428.354,83998,9.140335
17454.212,83999,9.996707
17454.268,84000,11.993466
17454.315,84001,14.354512
17480.156,84002,11.528931
17480.252,84003,9.062371
17503.918,84004,8.552111
17504.136,84005,8.950438
17507.048,84006,8.803959
17507.103,84007,8.741141
17507.150,84008,8.658418
17526.638,84009,8.704720
17526.712,84010,8.782251
17526.769,84011,8.799560
17526.825,84012,8.815499
17552.624,84013,8.851487
17552.690,84014,8.966377
17552.737,84015,8.938827
17579.147,84016,8.949429
17579.231,84017,9.075858
17604.187,84018,9.324678
17604.265,84019,9.618357
17604.324,84020,9.559145
17650.381,84021,9.626290
17650.466,84022,9.836957
17650.528,84023,9.722140
17650.588,84024,9.730001
17650.639,84025,9.696392
17677.834,84026,9.503395
17700.221,84027,9.492505
17700.320,84028,9.526690
17700.394,84029,9.343285
17700.467,84030,9.347756
17736.602,84031,9.152667
17739.738,84032,9.241089
17739.869,84033,9.268423
17763.146,84034,9.169544
17763.230,84035,9.319629
17763.296,84036,9.135214
17790.123,84037,9.269649
17790.202,84038,7.831183
17815.907,84039,4.579074
17816.052,84040,4.610303
17816.170,84041,4.434687
17816.318,84042,4.693964
17816.440,84043,4.580084
17845.305,84044,4.483008
17845.453,84045,4.597177
17850.533,84046,4.581454
17850.623,84047,4.712499
17877.802,84048,4.744449
17877.941,84049,4.807700
17878.003,84050,4.777265
17900.363,84051,4.382038
17900.490,84052,4.432884
17928.644,84053,4.393938
17929.159,84054,4.287198
17929.879,84055,4.326649
17948.110,84056,4.261018
17948.186,84057,4.384057
17952.858,84058,4.470748
17952.953,84059,4.430720
17953.013,84060,4.644561
17981.163,84061,5.474032
17982.519,84062,6.673342
18006.979,84063,13.846487
18007.075,84064,14.694565
18007.375,84065,10.508338
18040.249,84066,9.062948
18040.379,84067,8.960031
18047.685,84068,9.173438
18047.761,84069,8.975681
18047.821,84070,9.039148
18054.699,84071,8.930028
18054.772,84072,8.971786
18054.838,84073,9.083575
18083.140,84074,9.113866
18083.292,84075,9.144878
18106.550,84076,9.164712
18106.646,84077,9.307801
18106.719,84078,9.501159
18132.008,84079,9.617996
18153.199,84080,9.895737
18153.302,84081,9.880880
18153.359,84082,10.113328
18155.382,84083,10.153355
18181.130,84084,9.981633
18181.206,84085,10.053755
18181.277,84086,9.900352
18181.338,84087,9.835010
18207.161,84088,9.716731
18210.026,84089,9.465675
18210.096,84090,9.531450
18242.625,84091,9.533397
18242.798,84092,9.460266
18262.375,84093,9.472671
18267.220,84094,9.399468
18267.327,84095,9.398025
18269.138,84096,9.517603
18269.241,84097,9.617275
18295.362,84098,9.601480
18295.529,84099,9.779981
18295.664,84100,9.851165
18321.030,84101,9.714639
18321.122,84102,9.702955
18347.147,84103,9.723366
18347.241,84104,6.753902
18347.311,84105,5.244108
18378.984,84106,4.951150
18379.877,84107,4.874557
18381.687,84108,4.723534
18381.854,84109,4.719567
18382.013,84110,4.813974
18406.167,84111,4.768394
18406.265,84112,4.541355
18406.335,84113,4.481566
18433.245,84114,4.331120
18433.646,84115,4.396967
18435.198,84116,4.331120
18435.403,84117,4.357661
18460.129,84118,4.371220
18487.156,84119,4.340568
18487.295,84120,4.454592
18489.224,84121,4.444351
18489.489,84122,4.866046
18494.016,84123,5.767711
18494.081,84124,6.245805
18494.139,84125,12.532143
18521.610,84126,15.257691
18521.689,84127,11.214120
18521.748,84128,9.322874
18547.221,84129,8.861080
18547.405,84130,9.314436
18578.509,84131,9.239285
18578.624,84132,9.018233
18578.738,84133,9.231496
18601.164,84134,9.181877
18601.243,84135,9.149133
18606.368,84136,9.205460
18637.552,84137,9.194426
18637.811,84138,9.492360
18638.023,84139,9.448943
18638.204,84140,9.533686
18661.285,84141,9.612299
18661.369,84142,9.635522
18661.429,84143,9.814600
18691.192,84144,9.803565
18691.300,84145,9.847992
18691.382,84146,9.905761
18697.094,84147,9.798372
18697.151,84148,10.092196
18698.984,84149,10.099264
18699.029,84150,10.046254
18724.635,84151,9.958050
18727.710,84152,9.786472
18727.790,84153,9.729280
18750.119,84154,9.552510
18750.195,84155,9.646340
18775.381,84156,9.695743
18776.191,84157,9.614318
18776.251,84158,9.843160
18803.421,84159,9.822822
18803.635,84160,9.919897
18808.192,84161,9.880158
18808.323,84162,9.662207
18808.433,84163,9.872225
18838.873,84164,9.742406
18838.964,84165,9.755965
18839.028,84166,8.408372
18839.094,84167,5.041446
18860.180,84168,5.039066
18860.262,84169,4.907444
18860.323,84170,5.038417
18891.676,84171,5.123953
18891.805,84172,5.058972
18891.925,84173,5.306132
18914.135,84174,5.211581
18914.210,84175,5.062073
18914.266,84176,4.869292
18914.320,84177,4.693603
18940.182,84178,4.838929
18940.266,84179,4.715889
18940.326,84180,4.799478
18966.160,84181,4.842535
18966.238,84182,4.858906
18990.321,84183,4.985119
18990.456,84184,4.929297
18990.541,84185,5.420589
19046.613,84186,6.201811
19046.704,84187,12.249498
19046.767,84188,15.627459
19072.294,84189,13.343295
19072.411,84190,10.174487
19097.170,84191,9.185483
19097.249,84192,9.455578
19099.009,84193,9.461276
19115.096,84194,9.248950
19115.261,84195,9.277582
19115.339,84196,9.310758
19115.398,84197,9.270154
19115.455,84198,9.367806
19141.187,84199,9.485941
19141.295,84200,9.553736
19141.377,84201,9.774212
19141.454,84202,9.657158
19167.210,84203,9.472960
19202.316,84204,9.719399
19202.416,84205,9.913118
19205.167,84206,10.035653
19205.244,84207,10.094864
19209.312,84208,10.210836
19209.397,84209,10.371523
19209.460,84210,10.543749
19234.265,84211,10.193455
19234.428,84212,9.666750
19259.333,84213,9.717019
19259.449,84214,9.548110
19259.533,84215,9.537364
19285.136,84216,9.607755
19285.220,84217,9.659899
19298.065,84218,9.704398
19298.128,84219,9.625857
19298.189,84220,9.733824
19301.109,84221,10.014016
19301.298,84222,10.134603
19326.133,84223,10.086859
19326.700,84224,10.175785
19350.099,84225,10.144700
19350.166,84226,10.132584
19350.215,84227,10.043586
19377.765,84228,10.123064
19377.852,84229,10.267812
19377.928,84230,9.842294
19394.118,84231,9.607971
19394.195,84232,9.409565
19394.254,84233,9.333260
19421.306,84234,9.325543
19421.417,84235,9.193633
19421.500,84236,9.298642
19421.856,84237,9.187791
19446.243,84238,9.348622
19479.007,84239,9.281765
19479.179,84240,9.121078
19480.867,84241,9.121727
19481.176,84242,9.029844
19489.486,84243,8.943298
19509.134,84244,9.001212
19509.209,84245,8.924186
19509.266,84246,9.161322
19509.333,84247,9.228395
19535.152,84248,9.420527
19535.232,84249,9.977667
19561.202,84250,10.570939
19561.383,84251,12.452520
19561.502,84252,14.896939
19592.151,84253,12.288876
19592.222,84254,9.658961
19594.250,84255,8.876442
19601.011,84256,9.364561
19601.139,84257,9.257316
19601.216,84258,9.156490
19601.303,84259,9.226448
19631.368,84260,9.013689
19631.498,84261,9.108817
19631.599,84262,9.168318
19636.163,84263,9.110476
19636.264,84264,9.190892
19636.343,84265,9.099802
19662.220,84266,9.364921
19662.307,84267,9.416488
19687.164,84268,9.412089
19690.113,84269,9.555322
19690.209,84270,9.532893
19694.090,84271,9.617708
19694.206,84272,9.480244
19694.301,84273,9.517891
19720.977,84274,9.655932
19721.070,84275,9.386486
19722.254,84276,9.325615
19722.352,84277,9.198104
19722.425,84278,9.256667
19746.149,84279,9.291646
19746.255,84280,9.225078
19771.525,84281,9.175386
19771.595,84282,9.026671
19771.646,84283,9.031287
19800.328,84284,9.046144
19800.453,84285,8.893534
19809.166,84286,8.933562
19835.223,84287,8.667649
19835.314,84288,8.571295
19859.353,84289,4.459641
19859.530,84290,3.978518
19859.671,84291,4.067660
19859.808,84292,3.855550
19859.988,84293,3.847400
19885.978,84294,3.814946
19891.756,84295,3.771889
19915.236,84296,3.923272
19915.388,84297,3.925508
19915.514,84298,3.965031
19942.233,84299,3.768211
19942.313,84300,3.628367
19942.370,84301,3.696522
19942.425,84302,3.517300
19967.230,84303,3.453977
19993.160,84304,3.483619
19993.255,84305,3.377961
19993.326,84306,3.417339
20001.055,84307,3.384452
20001.151,84308,3.331947
20001.206,84309,3.491120
20001.261,84310,3.399525
20028.912,84311,3.411209
20028.991,84312,3.737920
20029.048,84313,4.657038
20052.251,84314,8.146354
20052.332,84315,14.100716
20054.136,84316,13.250041
20054.219,84317,9.035253
20079.219,84318,7.445332
20079.343,84319,7.392395
20079.436,84320,7.578829
20097.154,84321,7.515362
20097.235,84322,7.559789
20097.293,84323,7.538225
20097.351,84324,7.620588
20101.014,84325,7.695450
20101.082,84326,7.715428
20101.141,84327,7.762451
20127.591,84328,7.683189
20132.809,84329,7.821663
20132.894,84330,8.053822
20154.249,84331,8.163664
20154.325,84332,8.232107
20183.718,84333,8.308267
20183.843,84334,8.303507
20183.958,84335,8.186526
20201.159,84336,8.114188
20201.276,84337,8.213788
20210.204,84338,8.017906
20210.310,84339,8.018988
20210.390,84340,7.934749
20242.775,84341,8.096086
20261.295,84342,8.167630
20261.449,84343,7.938067
20261.498,84344,8.047836
20261.547,84345,8.220279
20294.150,84346,8.278698
20294.236,84347,8.306825
20294.303,84348,8.245233
20299.090,84349,8.373105
20299.184,84350,8.355002
20299.241,84351,8.357887
20299.298,84352,6.914878
20326.079,84353,3.958251
20326.156,84354,3.724145
20326.233,84355,3.682747
20352.241,84356,3.481455
20352.334,84357,3.414599
20380.297,84358,3.442077
20380.387,84359,3.450154
20380.455,84360,3.546365
20397.363,84361,3.532589
20397.447,84362,3.563962
20402.056,84363,3.596201
20420.255,84364,3.728616
20420.624,84365,3.532950
20420.863,84366,3.585960
20421.001,84367,3.798502
20422.253,84368,3.852088
20430.599,84369,3.927095
20430.799,84370,3.822302
20446.110,84371,3.979095
20446.180,84372,4.179016
20452.131,84373,4.147066
20452.224,84374,4.408723
20452.294,84375,4.797531
20467.198,84376,6.102139
20467.277,84377,11.942548
20477.590,84378,14.757600
20477.663,84379,12.551904
20477.714,84380,9.288112
20480.083,84381,8.585503
20480.176,84382,9.066698
20480.267,84383,9.187502
20480.358,84384,9.053861
20486.149,84385,9.063886
20486.272,84386,9.114876
20486.382,84387,9.108817
20491.073,84388,9.030638
20491.178,84389,9.139541
20491.276,84390,9.371701
20495.023,84391,9.491783
20495.097,84392,9.571838
20500.924,84393,9.529503
20501.080,84394,9.602706
20501.204,84395,9.595278
20507.145,84396,9.765124
20507.218,84397,9.903958
20509.081,84398,9.857296
20509.136,84399,9.826933
20515.057,84400,9.703749
20515.123,84401,9.756614
20515.179,84402,9.765269
20522.448,84403,9.745147
20528.874,84404,9.862488
20530.464,84405,9.825202
20530.592,84406,9.853906
20530.649,84407,9.963098
20530.703,84408,9.771976
20530.757,84409,9.719904
20535.772,84410,9.621242
20535.885,84411,9.486302
20535.993,84412,9.396294
20542.148,84413,7.452400
20542.239,84414,4.990456
20544.060,84415,4.898213
20550.137,84416,4.652638
20550.230,84417,4.627612
20550.307,84418,4.605399
20550.382,84419,4.659129
20556.039,84420,4.819816
20556.113,84421,4.863089
20556.182,84422,5.095826
20556.271,84423,5.060703
20556.443,84424,5.167298
20559.049,84425,5.125251
20559.138,84426,4.990745
20566.291,84427,5.392751
20567.023,84428,5.500572
20567.099,84429,5.524445
20582.798,84430,5.239997
20582.940,84431,5.028320
20596.148,84432,5.223409
20609.125,84433,5.158716
20609.198,84434,5.202999
20622.237,84435,5.250022
20622.322,84436,5.103687
20632.277,84437,6.397910
20655.201,84438,9.860758
20655.291,84439,10.687344
20665.174,84440,11.811287
20665.340,84441,14.859652
20676.624,84442,14.865638
20686.266,84443,10.985134
20686.498,84444,9.484211
20711.340,84445,9.528637
20711.429,84446,9.649081
20711.503,84447,9.627805
20728.709,84448,9.637108
20728.917,84449,9.668698
20750.317,84450,9.763682
20750.411,84451,9.794983
20775.207,84452,9.752791
20775.276,84453,9.723366
20775.328,84454,9.867032
20782.145,84455,9.784020
20782.229,84456,9.757552
20795.167,84457,9.828591
20810.445,84458,9.817124
20810.571,84459,9.782578
20827.775,84460,9.885279
20829.549,84461,9.710528
20831.088,84462,9.931725
20855.335,84463,9.954516
20855.517,84464,10.031758
20861.185,84465,10.077122
20861.281,84466,10.043514
20879.467,84467,9.935692
20888.352,84468,9.966848
20888.434,84469,10.061977
20902.290,84470,10.080079
20902.379,84471,9.956968
20910.436,84472,10.012357
20934.756,84473,9.994183
20934.859,84474,9.892563
20941.118,84475,9.924225
20941.234,84476,9.858522
20954.132,84477,9.829529
20984.994,84478,9.742767
20985.089,84479,9.729857
20985.144,84480,9.610351
20985.196,84481,9.418219
21006.208,84482,9.341121
21006.277,84483,9.303690
21006.332,84484,9.261571
21021.267,84485,9.416056
21021.361,84486,9.264961
21035.796,84487,9.316888
21035.859,84488,9.337732
21049.045,84489,9.242242
21062.257,84490,9.336650
21062.398,84491,9.217721
21076.649,84492,9.292223
21078.213,84493,9.340905
21085.936,84494,9.391174
21134.145,84495,9.356555
21134.217,84496,9.365210
21134.271,84497,9.544216
21134.325,84498,9.552077
21142.099,84499,9.571333
21149.172,84500,9.563400
21149.302,84501,9.614679
21157.208,84502,10.340799
21157.347,84503,10.801728
21166.353,84504,13.122026
21180.253,84505,14.499981
21180.321,84506,10.990543
21204.515,84507,9.474258
21204.582,84508,9.263302
21204.618,84509,9.442452
21229.145,84510,9.686151
21229.220,84511,9.327707
21238.329,84512,9.350281
21238.406,84513,9.438558
21262.457,84514,9.275058
21262.631,84515,9.380500
21262.669,84516,9.508732
21277.083,84517,9.518685
21277.186,84518,9.578474
21291.456,84519,9.440793
21291.598,84520,9.550779
21304.428,84521,9.410214
21317.464,84522,9.567223
21317.538,84523,9.631699
21332.150,84524,9.563689
21332.222,84525,9.616914
21341.191,84526,9.557270
21364.417,84527,9.562174
21364.569,84528,9.627516
21374.044,84529,9.544360
21376.741,84530,9.613308
21384.319,84531,9.636243
21398.537,84532,9.602923
21398.745,84533,9.533325
21411.397,84534,9.332395
21421.158,84535,9.288472
21421.556,84536,9.122737
21444.238,84537,8.926061
21444.385,84538,8.851992
21452.407,84539,4.557654
21452.600,84540,4.174688
21484.042,84541,4.157451
21488.997,84542,3.984792
21492.690,84543,4.069679
21497.279,84544,3.957242
21503.584,84545,4.127449
21511.007,84546,4.185651
21513.969,84547,4.265706
21520.256,84548,4.301767
21536.339,84549,4.121895
21537.864,84550,4.136103
21546.472,84551,4.120525
21546.679,84552,4.157307
21555.710,84553,4.286477
21579.866,84554,4.114106
21580.014,84555,4.012270
21585.593,84556,4.010179
21585.681,84557,4.035349
21599.070,84558,4.039965
21612.708,84559,3.881658
21612.805,84560,3.963949
21628.189,84561,3.860022
21628.371,84562,6.878168
21642.101,84563,8.229294
21659.173,84564,8.237732
21659.311,84565,8.981883
21665.786,84566,9.797002
21665.871,84567,12.725068
21680.125,84568,13.818432
21702.282,84569,9.646484
21702.349,84570,8.118155
21705.199,84571,7.822456
21705.255,84572,8.185156
21730.214,84573,8.129622
21730.294,84574,8.118155
21730.354,84575,8.188618
21745.174,84576,8.388467
21745.273,84577,8.512949
21769.466,84578,8.597836
21769.520,84579,8.534729
21769.556,84580,8.635411
21795.252,84581,8.744892
21795.404,84582,8.610818
21800.201,84583,8.514319
21800.270,84584,8.480710
21814.242,84585,8.508189
21828.132,84586,8.350891
21828.231,84587,8.166044
21845.134,84588,8.073872
21845.203,84589,8.233117
21850.019,84590,8.436283
21876.459,84591,8.528671
21880.389,84592,8.524488
21880.566,84593,8.785713
21880.707,84594,8.794223
21890.207,84595,8.772442
21914.515,84596,8.713158
21914.679,84597,8.619472
21924.763,84598,8.621852
21924.830,84599,8.499390
21945.459,84600,8.390414
21945.930,84601,8.327957
21946.051,84602,4.676583
21960.076,84603,3.704095
21960.142,84604,3.472224
21985.284,84605,3.398299
21985.357,84606,3.234511
21985.415,84607,3.203715
22003.166,84608,3.283914
22003.237,84609,3.248791
22017.205,84610,3.254344
22017.277,84611,3.314638
22025.666,84612,3.317811
22049.058,84613,3.294300
22049.110,84614,3.254921
22057.422,84615,3.329928
22057.496,84616,3.499197
22066.364,84617,3.347958
22083.355,84618,3.423109
22085.235,84619,3.391520
22104.179,84620,3.423758
22104.258,84621,3.585887
22104.313,84622,3.479003
22129.430,84623,3.604206
22129.510,84624,7.845896
22136.073,84625,7.995115
22136.151,84626,8.010982
22160.086,84627,8.453592
22160.138,84628,9.288040
22160.187,84629,11.491500
22177.206,84630,13.945366
22177.279,84631,10.669746
22200.177,84632,8.021584
22200.250,84633,7.531950
22200.303,84634,8.044735
22215.456,84635,8.048341
22215.513,84636,7.975498
22239.167,84637,7.750984
22239.254,84638,7.800026
22242.110,84639,8.108490
22256.090,84640,8.229366
22256.156,84641,8.182055
22276.376,84642,7.990788
22276.456,84643,8.139503
22284.302,84644,8.387457
22297.270,84645,8.433038
22297.348,84646,8.331058
22311.269,84647,8.412123
22311.444,84648,8.456333
22344.128,84649,8.303940
22344.237,84650,8.349882
22344.302,84651,8.429432
22350.178,84652,8.347141
22350.253,84653,8.710490
22364.159,84654,8.812253
22378.134,84655,8.850406
22378.327,84656,8.798406
22391.151,84657,8.565453
22391.306,84658,8.558529
22419.201,84659,7.639916
22419.280,84660,3.755878
22419.336,84661,3.670270
22438.361,84662,3.516867
22438.430,84663,3.356757
22447.125,84664,3.221962
22447.203,84665,3.244896
22455.178,84666,3.346011
22480.274,84667,3.272519
22480.385,84668,3.424768
22485.705,84669,3.563241
22485.786,84670,3.719240
22499.180,84671,3.767922
22512.201,84672,3.597283
22512.347,84673,3.698974
22529.474,84674,3.586825
22529.672,84675,3.644522
22537.007,84676,6.453732
22559.197,84677,8.275885
22559.283,84678,8.348656
22566.145,84679,8.185156
22566.236,84680,8.099620
22580.780,84681,8.148518
22592.134,84682,7.941745
22592.213,84683,7.965185
22607.344,84684,7.878999
22607.556,84685,7.726029
22631.252,84686,7.736271
22631.435,84687,7.772259
22631.568,84688,7.811566
22645.144,84689,8.467584
22645.224,84690,9.401631
22670.522,84691,11.913123
22670.630,84692,14.354440
22670.717,84693,10.883587
22685.192,84694,8.238814
22685.259,84695,7.675833
22709.394,84696,8.030815
22709.500,84697,8.050000
22709.560,84698,8.078488
22734.140,84699,8.168784
22734.222,84700,8.079642
22740.208,84701,8.149672
22740.300,84702,8.129262
22754.408,84703,8.082527
22767.316,84704,8.097384
22767.401,84705,8.095076
22790.133,84706,8.203114
22790.246,84707,8.265427
22790.328,84708,8.080868
22806.653,84709,8.008314
22806.781,84710,7.954150
22829.088,84711,8.072646
22829.162,84712,8.166044
22829.221,84713,8.407795
22854.198,84714,8.490807
22854.286,84715,8.644138
22862.191,84716,8.868508
22862.298,84717,8.908608
22880.459,84718,8.915387
22881.044,84719,9.011670
22892.226,84720,8.818744
22902.114,84721,8.865046
22902.204,84722,8.658129
22917.400,84723,7.877701
22917.563,84724,4.223082
22928.664,84725,3.831317
22950.176,84726,3.668899
22950.301,84727,3.558409
22955.291,84728,3.303315
22955.379,84729,3.367575
22969.260,84730,3.214894
22983.553,84731,2.947755
22983.695,84732,3.050673
23002.004,84733,3.102240
23002.108,84734,3.207465
23005.223,84735,3.131954
23055.181,84736,3.153013
23055.281,84737,3.285717
23055.360,84738,3.259898
23055.436,84739,3.524079
23060.035,84740,3.454265
23060.092,84741,4.512145
23060.142,84742,8.064136
23078.596,84743,8.155586
23078.675,84744,8.228934
23100.307,84745,8.177799
23100.449,84746,8.251652
23100.581,84747,8.168279
23117.291,84748,8.117145
23117.389,84749,8.293555
23139.689,84750,8.193666
23139.849,84751,8.323052
23140.002,84752,8.904785
23164.248,84753,9.301454
23164.372,84754,11.932884
23173.534,84755,13.251195
23173.661,84756,9.973700
23184.230,84757,8.213716
23198.301,84758,7.976941
23198.438,84759,8.428711
23211.216,84760,8.370508
23211.318,84761,8.337477
23244.203,84762,8.193522
23244.549,84763,8.302137
23244.676,84764,8.411906
23250.338,84765,8.380750
23250.464,84766,8.389260
23265.201,84767,8.316850
23278.310,84768,8.341083
23278.387,84769,8.447318
23294.292,84770,8.348511
23294.494,84771,8.423590
23318.102,84772,8.423301
23318.180,84773,8.614135
23318.238,84774,8.832087
23333.124,84775,8.854444
23333.200,84776,9.109827
23342.157,84777,9.159014
23355.192,84778,9.239213
23355.319,84779,9.343141
23382.464,84780,9.256739
23382.555,84781,9.286309
23382.616,84782,9.020613
23394.236,84783,4.529238
23394.336,84784,4.221784
23417.228,84785,4.042850
23417.315,84786,4.087638
23417.369,84787,3.941447
23443.113,84788,3.826341
23443.227,84789,3.932648
23450.743,84790,3.827423
23450.936,84791,3.960776
23462.487,84792,4.009746
23480.439,84793,3.856920
23482.056,84794,3.823240
23492.731,84795,3.617188
23494.234,84796,3.739218
23500.179,84797,3.786530
23525.978,84798,3.821292
23526.051,84799,3.987388
23530.238,84800,3.988182
23530.466,84801,3.947866
23542.132,84802,4.104875
23556.265,84803,4.205917
23556.349,84804,4.238949
23571.623,84805,4.221928
23571.778,84806,4.085330
23595.222,84807,4.093552
23595.323,84808,4.025541
23595.387,84809,3.914185
23610.244,84810,7.471224
23610.334,84811,8.369066
23644.163,84812,8.277976
23644.254,84813,8.202609
23644.316,84814,8.662024
23650.097,84815,9.509093
23650.170,84816,11.266120
23672.302,84817,14.461829
23672.480,84818,12.404632
23699.079,84819,9.075569
23699.174,84820,8.239535
23699.225,84821,8.581897
23704.131,84822,8.802084
23704.215,84823,8.523695
23717.390,84824,8.847809
23731.082,84825,9.008568
23731.159,84826,9.002077
23744.055,84827,8.798911
23744.114,84828,8.789030
23758.360,84829,8.739410
23774.880,84830,8.724626
23774.970,84831,8.664043
23785.125,84832,8.721741
23785.204,84833,8.576343
23809.136,84834,8.615433
23809.205,84835,8.709624
23809.256,84836,8.935437
23829.920,84837,9.281116
23829.998,84838,9.425359
23850.278,84839,9.388072
23850.351,84840,9.502890
23850.403,84841,9.563905
23864.347,84842,9.805368
23864.430,84843,9.689757
23887.195,84844,9.640065
23887.292,84845,9.554962
23887.368,84846,9.385404
23914.241,84847,9.478152
23914.335,84848,6.049418
23919.702,84849,4.816499
23919.876,84850,4.697354
23933.821,84851,4.377134
23946.110,84852,4.291309
23946.189,84853,4.184713
23960.174,84854,4.166322
23960.259,84855,4.036359
23969.183,84856,3.990995
23992.230,84857,4.110933
23992.359,84858,3.881802
23999.266,84859,3.878413
23999.469,84860,3.957891
24012.255,84861,3.984071
24028.215,84862,4.146705
24028.935,84863,4.054606
24041.104,84864,4.301695
24041.164,84865,4.351675
24064.448,84866,4.324701
24064.632,84867,4.441466
24064.740,84868,4.292607
24080.861,84869,4.343525
24081.533,84870,4.323403
24103.393,84871,4.189762
24103.562,84872,8.419046
24103.693,84873,8.670174
24130.788,84874,8.639955
24130.886,84875,8.676593
24147.128,84876,9.349776
24147.223,84877,10.582118
24147.287,84878,13.513862
24162.163,84879,14.293858
24162.254,84880,10.175424
24180.596,84881,8.625603
24180.700,84882,8.614352
24185.268,84883,8.916036
24200.211,84884,8.821846
24200.334,84885,8.783982
24222.317,84886,8.936014
24222.500,84887,9.178631
24229.686,84888,8.969334
24248.254,84889,8.931975
24248.411,84890,8.977051
24255.363,84891,9.008280
24255.452,84892,9.121799
24268.147,84893,9.089777
24281.104,84894,9.175314
24281.179,84895,9.233083
24296.225,84896,8.994577
24296.371,84897,9.111486
24321.409,84898,9.223563
24321.522,84899,9.288472
24321.592,84900,9.444399
24335.301,84901,9.416849
24335.393,84902,9.550130
24357.165,84903,9.642590
24357.252,84904,9.557919
24359.252,84905,9.689397
24382.284,84906,9.491855
24382.454,84907,9.352444
24391.253,84908,7.938500
24391.327,84909,4.451275
24400.324,84910,4.355425
24414.713,84911,4.234694
24414.864,84912,4.177501
24440.473,84913,4.034268
24440.557,84914,3.927600
24441.012,84915,4.043066
24456.171,84916,4.006717
24456.283,84917,4.185723
24469.861,84918,4.219115
24470.366,84919,4.028786
24487.087,84920,4.011549
24496.126,84921,3.901275
24496.220,84922,3.834635
24511.002,84923,3.898823
24511.094,84924,4.020637
24539.655,84925,4.081002
24539.732,84926,4.033763
24539.788,84927,4.061602
24550.125,84928,4.002967
24550.205,84929,3.883605
24573.637,84930,3.872571
24574.033,84931,3.748089
24574.137,84932,3.737054
24604.111,84933,3.732943
24604.222,84934,4.268951
24604.297,84935,8.110870
24604.370,84936,7.906261
24616.079,84937,7.971315
24638.429,84938,8.655172
24638.510,84939,9.434158
24644.151,84940,12.118958
24644.223,84941,13.987846
24654.374,84942,10.031974
24677.321,84943,7.744853
24677.395,84944,7.467978
24684.131,84945,7.960425
24684.234,84946,7.895515
24697.646,84947,7.867532
24711.208,84948,8.032402
24711.304,84949,8.085412
24727.117,84950,8.109500
24727.365,84951,8.021872
24749.992,84952,7.997784
24750.070,84953,7.920397
24750.131,84954,7.854262
24764.223,84955,7.805580
24764.333,84956,7.685713
24790.137,84957,7.532816
24790.226,84958,7.560727
24790.294,84959,7.621886
24814.169,84960,7.749902
24814.290,84961,8.056058
24827.270,84962,8.226986
24827.379,84963,8.043942
24835.058,84964,7.998000
24847.210,84965,8.230953
24847.330,84966,8.312667
24861.201,84967,8.279347
24861.282,84968,8.148590
24881.151,84969,8.095364
24884.106,84970,7.957684
24884.188,84971,7.795338
24908.129,84972,7.616982
24908.235,84973,7.734468
24908.317,84974,7.410425
24938.408,84975,7.268706
24938.508,84976,7.206970
24940.039,84977,6.969185
24940.102,84978,6.826529
24952.290,84979,6.653869
24980.201,84980,6.647234
24980.292,84981,6.636200
24980.360,84982,6.635478
24980.424,84983,6.648821
25016.668,84984,6.567179
25016.752,84985,6.649037
25016.813,84986,6.629348
25019.253,84987,6.652211
25019.395,84988,6.777342
25042.104,84989,6.813691
25044.011,84990,6.769120
25044.145,84991,6.738252
25060.158,84992,6.741497
25060.249,84993,6.998394
25075.447,84994,6.875066
25076.576,84995,6.946683
25087.081,84996,6.991903
25101.130,84997,6.852709
25101.199,84998,6.812393
25116.273,84999,6.617448
25116.460,85000,6.994139
25126.713,85001,7.649653
25149.198,85002,8.455035
25149.298,85003,11.537874
25156.177,85004,10.849978
25156.269,85005,7.366287
25181.130,85006,6.258571
25181.206,85007,6.383053
25181.264,85008,6.620621
25198.242,85009,6.472916
25198.389,85010,6.605908
25228.320,85011,6.651273
25228.398,85012,6.680915
25228.456,85013,6.723106
25239.097,85014,6.647018
25239.188,85015,6.721519
25251.166,85016,6.588383
25251.262,85017,6.673775
25262.396,85018,7.083354
25281.133,85019,6.904059
25281.214,85020,6.806695
25290.242,85021,6.691156
25290.331,85022,6.589825
25299.379,85023,6.855233
25319.294,85024,6.845136
25319.393,85025,7.011737
25333.396,85026,7.198532
25333.594,85027,7.154898
25341.148,85028,7.353593
25356.243,85029,7.327413
25356.463,85030,7.277289
25369.298,85031,7.156413
25371.544,85032,6.192002
25382.234,85033,2.235626
25397.316,85034,2.080925
25397.396,85035,2.043638
25410.379,85036,2.131194
25410.471,85037,1.850641
25435.163,85038,1.761499
25435.251,85039,1.662981
25435.317,85040,1.791718
25449.102,85041,1.825471
25449.168,85042,1.822441
25476.332,85043,2.789737
25476.415,85044,2.231948
25476.483,85045,1.895573
25491.189,85046,1.970940
25504.147,85047,1.889947
25504.242,85048,2.112731
25504.304,85049,1.951467
25515.129,85050,1.899107
25538.490,85051,2.127660
25538.573,85052,1.999212
25544.125,85053,6.019127
25544.217,85054,6.187170
25557.145,85055,6.257922
25571.172,85056,6.272490
25571.312,85057,6.194671
25588.202,85058,6.215298
25588.286,85059,6.173828
25594.046,85060,6.142166
25617.404,85061,6.130915
25617.531,85062,6.261383
25630.655,85063,7.011304
25631.156,85064,7.845679
25641.852,85065,10.720015
25652.107,85066,11.690988
25652.200,85067,7.722423
25666.176,85068,6.222870
25666.281,85069,6.005280
25680.773,85070,6.332351
25680.908,85071,6.309056
25689.524,85072,6.360911
25713.164,85073,6.631367
25713.255,85074,6.498447
25719.332,85075,6.385721
25719.485,85076,6.417599
25732.362,85077,6.405482
25746.304,85078,6.408295
25746.458,85079,6.333072
25760.270,85080,6.392428
25760.329,85081,6.482941
25769.701,85082,6.357233
25793.156,85083,6.140508
25793.246,85084,6.167770
25800.380,85085,6.391996
25800.495,85086,6.681131
25812.359,85087,6.787799
25828.288,85088,7.026955
25828.469,85089,7.003227
25841.986,85090,7.128430
25842.072,85091,7.277144
25865.717,85092,7.330659
25865.877,85093,7.277505
25866.040,85094,7.230554
25880.300,85095,7.193339
25880.436,85096,6.959593
25904.534,85097,6.794290
25904.717,85098,6.935865
25904.857,85099,6.388101
25920.398,85100,2.165308
25920.499,85101,4.361411
25937.464,85102,4.755772
25937.598,85103,5.435663
25970.054,85104,6.301988
25970.284,85105,5.703234
25970.932,85106,6.089518
25977.084,85107,5.864859
25977.191,85108,6.011626
25984.152,85109,5.964891
26007.142,85110,5.544278
26007.200,85111,6.101562
26016.025,85112,6.011915
26016.079,85113,6.385865
26026.030,85114,6.385144
26039.117,85115,6.388101
26039.207,85116,6.424162
26088.172,85117,6.253162
26088.261,85118,6.395602
26088.331,85119,6.460583
26095.043,85120,6.406853
26095.103,85121,6.442841
26095.159,85122,6.341294
26095.217,85123,6.303358
26122.071,85124,6.568694
26122.213,85125,7.235098
26122.273,85126,8.329255
26146.166,85127,11.294247
26146.247,85128,12.172400
26172.724,85129,7.804642
26172.798,85130,6.237728
26172.858,85131,6.248113
26195.121,85132,6.681276
26195.197,85133,6.623723
26221.850,85134,6.528161
26222.261,85135,6.690651
26222.424,85136,6.885163
26246.127,85137,6.777342
26246.207,85138,6.703778
26271.261,85139,6.813402
26271.534,85140,7.018588
26272.079,85141,7.202499
26297.205,85142,6.955915
26297.310,85143,7.004525
26326.767,85144,7.241733
26326.836,85145,7.156269
26326.886,85146,6.924470
26342.153,85147,6.986494
26342.228,85148,7.351862
26349.157,85149,7.519978
26349.212,85150,7.505049
26349.258,85151,7.686146
26377.446,85152,7.668116
26377.514,85153,7.795122
26377.568,85154,7.751344
26377.620,85155,7.539018
26401.286,85156,7.438913
26401.357,85157,3.717437
26401.412,85158,2.752666
26431.339,85159,2.706148
26431.534,85160,2.597100
26440.236,85161,2.693599
26440.382,85162,2.526565
26440.507,85163,2.521589
26440.614,85164,2.479542
26440.733,85165,2.359098
26466.567,85166,2.618592
26466.717,85167,2.571352
26491.219,85168,2.598398
26491.288,85169,2.726270
26491.337,85170,2.631069
26517.462,85171,2.739324
26517.641,85172,2.760023
26536.240,85173,2.843395
26536.370,85174,2.927128
26536.437,85175,2.886091
26562.348,85176,2.897631
26562.498,85177,2.817143
26562.538,85178,2.709826
26587.119,85179,2.664245
26587.204,85180,2.641310
26620.862,85181,7.087104
26621.136,85182,7.057390
26621.259,85183,7.096119
26621.375,85184,7.127853
26621.495,85185,7.126987
26629.323,85186,7.327053
26629.394,85187,8.215880
26651.128,85188,9.290059
26651.214,85189,12.488870
26677.686,85190,12.845295
26679.183,85191,8.534801
26679.246,85192,7.055370
26711.159,85193,6.989956
26711.243,85194,7.442664
26711.317,85195,7.420090
26715.085,85196,7.421965
26715.144,85197,7.454131
26715.200,85198,7.490985
26741.183,85199,7.745935
26741.265,85200,7.840559
26741.323,85201,7.871643
26741.379,85202,7.708576
26768.669,85203,7.626213
26768.814,85204,7.805435
26768.938,85205,7.800747
26792.442,85206,7.762018
26792.619,85207,8.015237
26819.223,85208,8.091109
26819.297,85209,8.061323
26819.347,85210,7.891549
26828.300,85211,7.906189
26828.393,85212,7.855704
26852.314,85213,8.106038
26854.154,85214,8.078848
26854.210,85215,8.157173
26879.348,85216,8.530546
26879.438,85217,8.527229
26904.284,85218,8.264273
26904.357,85219,8.331202
26904.410,85220,7.915565
26904.462,85221,7.803704
26904.513,85222,7.813657
26929.091,85223,8.263480
26929.162,85224,7.334842
26929.215,85225,3.501577
26955.424,85226,3.360796
26955.513,85227,3.312907
26955.551,85228,3.266966
26981.111,85229,3.078728
26981.187,85230,3.021247
26981.245,85231,3.039999
27007.349,85232,3.008626
27007.462,85233,3.054062
27009.186,85234,2.893952
27009.249,85235,2.899073
27027.409,85236,3.078728
27029.121,85237,3.032210
27029.190,85238,2.827601
27034.140,85239,3.006318
27034.209,85240,3.118395
27059.263,85241,3.069569
27059.319,85242,6.763855
27059.361,85243,7.712975
27086.210,85244,7.900997
27086.289,85245,8.056707
27112.451,85246,7.981989
27138.148,85247,8.006006
27138.251,85248,8.714889
27145.126,85249,9.623838
27145.269,85250,12.085998
27145.410,85251,13.788141
27171.235,85252,10.188911
27171.351,85253,7.976508
27171.441,85254,7.722135
27172.220,85255,8.122771
27199.252,85256,7.992014
27225.093,85257,8.028580
27225.980,85258,7.948380
27226.739,85259,7.970305
27227.271,85260,8.069184
27250.197,85261,8.007232
27250.283,85262,8.294132
27250.346,85263,8.270620
27256.101,85264,8.286270
27256.174,85265,8.204917
27256.233,85266,8.366614
27256.291,85267,8.946472
27256.349,85268,8.676448
27282.299,85269,8.670102
27282.623,85270,8.758451
27282.713,85271,8.762489
27282.802,85272,8.800714
27308.193,85273,8.800570
27334.968,85274,8.710922
27335.060,85275,8.763427
27335.126,85276,8.938106
27335.189,85277,9.241593
27360.234,85278,8.985850
27370.943,85279,9.016862
27371.439,85280,8.822206
27371.509,85281,8.636998
27371.574,85282,8.761480
27396.442,85283,8.303147
27396.623,85284,3.939283
27396.728,85285,3.924859
27424.775,85286,3.886707
27425.010,85287,4.008809
27448.813,85288,3.672289
27448.910,85289,3.606514
27449.021,85290,3.678347
27467.827,85291,3.617332
27467.919,85292,3.805570
27492.120,85293,3.889015
27492.208,85294,4.038739
27518.445,85295,4.113746
27518.527,85296,4.100187
27518.589,85297,4.092398
27544.140,85298,4.031311
27544.225,85299,4.015949
27575.693,85300,3.985513
27575.786,85301,3.962507
27575.857,85302,4.003760
27602.227,85303,3.848987
27602.343,85304,3.897381
27627.033,85305,3.836294
27627.324,85306,3.806580
27627.406,85307,3.835284
27654.322,85308,3.739434
27654.410,85309,4.684877
27680.445,85310,8.700465
27681.112,85311,9.454713
27681.595,85312,10.981528
27701.193,85313,14.109948
27701.304,85314,12.635493
27701.384,85315,9.173366
27727.957,85316,8.029085
27728.071,85317,8.420417
27728.160,85318,8.358248
27728.248,85319,8.203691
27753.222,85320,8.457703
27753.311,85321,8.326370
27753.381,85322,8.500760
27778.253,85323,8.654812
27779.090,85324,8.830716
27799.150,85325,8.806195
27799.253,85326,8.880553
27799.333,85327,8.924042
27806.801,85328,8.923032
27806.918,85329,8.983398
27806.982,85330,9.082926
27832.090,85331,8.510064
27832.249,85332,8.408589
27857.204,85333,8.655822
27857.332,85334,9.081772
27859.012,85335,9.196157
27859.068,85336,9.188656
27884.370,85337,9.416633
27911.347,85338,9.548255
27911.521,85339,9.715721
27911.662,85340,9.740242
27911.753,85341,9.701297
27918.936,85342,9.574651
27919.055,85343,9.502674
27919.170,85344,9.295973
27944.154,85345,9.160240
27944.229,85346,9.218587
27969.248,85347,9.150360
27969.475,85348,8.756503
27969.574,85349,8.526724
27994.182,85350,8.503645
27994.416,85351,8.437221
27994.492,85352,8.483884
27994.562,85353,8.373393
28006.378,85354,8.345049
28006.462,85355,8.351252
28006.524,85356,8.384933
28032.164,85357,8.399501
28032.291,85358,8.422075
28034.054,85359,8.585214
28060.362,85360,8.650917
28060.491,85361,8.720370
28060.572,85362,8.838794
28060.635,85363,8.836414
28087.197,85364,8.784270
28087.280,85365,8.890000
28087.340,85366,8.849396
28101.262,85367,8.851920
28101.409,85368,8.806339
28101.519,85369,8.690584
28106.128,85370,8.722678
28106.210,85371,8.642191
28131.958,85372,8.969190
28132.553,85373,9.677136
28157.207,85374,10.710495
28157.297,85375,13.897766
28157.358,85376,14.514261
28185.462,85377,11.200705
28185.562,85378,8.889063
28194.950,85379,8.255114
28195.037,85380,8.830067
28195.103,85381,8.863820
28196.010,85382,8.767322
28196.062,85383,8.919787
28222.568,85384,9.063092
28222.745,85385,9.105356
28246.194,85386,9.131464
28246.287,85387,9.162548
28278.099,85388,9.143075
28278.216,85389,9.095763
28278.298,85390,9.184040
28299.117,85391,9.207696
28299.186,85392,9.167813
28299.237,85393,9.201566
28305.011,85394,9.135214
28305.068,85395,9.291213
28305.120,85396,9.361964
28332.263,85397,9.551500
28332.381,85398,9.904319
28332.438,85399,9.896818
28332.498,85400,10.119963
28358.167,85401,10.076401
28358.257,85402,9.939514
28358.326,85403,9.889173
28383.445,85404,9.628598
28383.579,85405,9.522074
28404.141,85406,9.342347
28404.217,85407,9.301094
28404.274,85408,9.210725
28406.021,85409,9.028330
28406.089,85410,8.980369
28433.416,85411,8.950655
28457.202,85412,9.087037
28457.308,85413,9.182598
28483.203,85414,9.119996
28483.285,85415,8.979359
28483.338,85416,8.861440
28512.191,85417,8.947337
28512.290,85418,9.009290
28517.116,85419,8.960535
28517.188,85420,9.085089
28517.244,85421,9.134276
28545.187,85422,9.090499
28545.343,85423,9.229044
28545.466,85424,9.065977
28545.591,85425,9.100523
28573.891,85426,9.047658
28574.063,85427,8.969046
28574.188,85428,8.915171
28601.174,85429,8.804392
28601.291,85430,8.836342
28601.382,85431,8.759749
28631.438,85432,8.742223
28631.533,85433,8.789679
28655.282,85434,9.065400
28655.382,85435,10.096379
28679.410,85436,11.961156
28680.394,85437,15.196244
28680.459,85438,13.242469
28705.167,85439,9.507506
28705.260,85440,8.737319
28709.080,85441,9.041961
28709.162,85442,9.148989
28709.226,85443,9.108529
28712.839,85444,9.014771
28738.079,85445,9.302753
28738.173,85446,9.327779
28738.227,85447,9.342924
28762.160,85448,9.488394
28762.250,85449,9.665957
28762.322,85450,9.506712
28793.625,85451,9.227962
28793.873,85452,9.197743
28814.108,85453,9.237338
28814.193,85454,9.209571
28814.248,85455,9.128002
28841.268,85456,9.374586
28841.352,85457,9.509525
28841.415,85458,9.772697
28866.292,85459,10.035941
28866.415,85460,9.863570
28866.501,85461,9.968940
28892.140,85462,9.981129
28892.221,85463,10.182420
28894.021,85464,10.133666
28894.103,85465,10.104240
28911.684,85466,10.057217
28911.815,85467,9.851598
28911.932,85468,9.678795
28920.376,85469,9.533470
28920.474,85470,9.723150
28920.547,85471,9.781568
28945.153,85472,8.356084
28945.229,85473,4.650403
28945.282,85474,4.474282
28945.335,85475,4.436490
28971.479,85476,4.387447
28996.954,85477,4.374105
28997.106,85478,4.410526
28997.222,85479,4.370282
28997.373,85480,4.341938
29017.526,85481,4.325639
29017.719,85482,4.374537
29030.435,85483,4.419974
29051.187,85484,4.373383
29051.322,85485,4.500245
29077.708,85486,4.649321
29079.232,85487,4.564578
29079.291,85488,4.588450
29102.448,85489,4.638935
29102.593,85490,4.658985
29128.967,85491,4.641604
29129.661,85492,4.562342
29131.091,85493,4.697859
29137.621,85494,4.619895
29137.698,85495,4.523396
29137.761,85496,7.349771
29137.825,85497,9.724087
29161.461,85498,10.512088
29161.585,85499,12.751897
29161.656,85500,14.811403
29197.048,85501,11.456953
29221.908,85502,9.027753
29222.021,85503,8.817518
29222.511,85504,9.410358
29222.678,85505,9.321360
29225.075,85506,9.399035
29225.139,85507,9.374225
29250.728,85508,9.315807
29250.818,85509,9.393193
29250.879,85510,9.577392
29277.066,85511,9.697763
29277.165,85512,9.671006
29300.782,85513,9.686584
29300.962,85514,9.546019
29302.815,85515,9.525680
29318.513,85516,9.757552
29318.685,85517,9.696320
29322.234,85518,9.683915
29322.323,85519,9.652615
29322.386,85520,9.673025
29350.359,85521,9.936557
29350.469,85522,9.802700
29350.541,85523,10.139147
29350.610,85524,10.256633
29375.611,85525,10.396621
29375.703,85526,10.396549
29375.772,85527,10.172684
29406.299,85528,9.989278
29406.396,85529,9.821019
29426.269,85530,9.739521
29427.029,85531,9.511689
29427.090,85532,5.099792
29429.857,85533,5.076569
29429.971,85534,4.850757
29456.151,85535,4.780510
29456.255,85536,4.860132
29456.333,85537,4.849747
29484.545,85538,4.955766
29484.655,85539,4.926556
29507.172,85540,4.961535
29507.242,85541,5.124025
29507.291,85542,4.941630
29533.538,85543,4.980864
29533.704,85544,4.994639
29533.827,85545,5.053202
29533.970,85546,5.160952
29558.171,85547,5.126117
29558.249,85548,5.283486
29558.307,85549,5.159293
29587.074,85550,5.084503
29587.155,85551,5.037840
29609.134,85552,4.950933
29609.207,85553,4.945741
29609.261,85554,4.831644
29636.174,85555,4.905208
29636.256,85556,4.943072
29647.105,85557,4.902396
29647.172,85558,8.319663
29675.438,85559,9.445914
29675.551,85560,10.228001
29675.892,85561,11.036340
29701.122,85562,13.677218
29722.657,85563,14.576502
29722.768,85564,10.969916
29722.829,85565,9.375091
29723.220,85566,9.252340
29732.967,85567,9.483561
29733.201,85568,9.475267
29733.268,85569,9.416993
29733.334,85570,9.397665
29733.399,85571,9.615616
29757.221,85572,9.728919
29757.319,85573,9.757768
29788.213,85574,9.749402
29788.281,85575,9.657519
29788.334,85576,9.679588
29788.385,85577,9.734184
29810.164,85578,9.742839
29810.246,85579,9.609846
29830.942,85580,9.650884
29831.030,85581,9.601048
29831.093,85582,9.721851
29835.091,85583,10.077988
29835.155,85584,10.195546
29860.502,85585,10.319956
29860.688,85586,10.589114
29886.278,85587,10.865700
29886.435,85588,10.969267
29886.557,85589,11.009511
29911.313,85590,11.037927
29911.404,85591,10.796824
29911.473,85592,10.545480
29940.134,85593,10.401381
29940.228,85594,10.628709
29965.193,85595,10.266802
29965.304,85596,9.839410
29965.390,85597,9.581070
29992.007,85598,9.391534
29992.087,85599,9.308955
30016.230,85600,9.350136
30016.294,85601,9.259912
30016.340,85602,9.161755
30034.775,85603,9.175314
30034.868,85604,9.167813
30034.944,85605,9.091003
30035.010,85606,9.179352
30040.414,85607,9.210004
30040.566,85608,9.352949
30040.687,85609,9.614606
30067.224,85610,9.584460
30067.316,85611,9.776736
30067.383,85612,9.868330
30091.280,85613,9.971392
30091.379,85614,10.025195
30117.338,85615,9.976296
30146.150,85616,10.011492
30146.295,85617,9.961872
30152.195,85618,9.867970
30152.420,85619,9.892203
30152.641,85620,9.728414
30152.862,85621,9.686872
30179.345,85622,9.717452
30180.018,85623,10.228506
30180.690,85624,11.026820
30204.397,85625,13.269226
30204.480,85626,15.316326
30230.762,85627,11.835808
30231.055,85628,9.729496
30231.208,85629,9.238853
30257.723,85630,9.690334
30257.857,85631,9.761951
30263.233,85632,9.763682
30263.364,85633,9.807748
30263.430,85634,9.879726
30266.174,85635,9.887659
30266.301,85636,10.080801
30291.152,85637,10.049716
30291.227,85638,10.165760
30291.284,85639,10.253099
30315.191,85640,10.003703
30315.279,85641,10.182781
30342.044,85642,10.229371
30342.127,85643,10.172323
30342.186,85644,10.292694
30361.211,85645,10.466796
30361.294,85646,10.686550
30387.169,85647,10.699965
30387.278,85648,10.772303
30387.362,85649,10.967752
30412.361,85650,10.933855
30412.441,85651,11.016507
30437.507,85652,10.902699
30437.654,85653,10.601735
30437.749,85654,10.481148
30466.647,85655,6.512367
30466.746,85656,5.724149
30476.224,85657,5.647701
30476.291,85658,5.337433
30476.342,85659,5.297550
30502.581,85660,5.328202
30502.692,85661,5.372268
30502.755,85662,5.270721
30527.377,85663,5.265312
30527.545,85664,5.526103
30560.271,85665,5.512328
30560.339,85666,5.480450
30560.392,85667,5.406093
30586.533,85668,5.266177
30586.724,85669,5.422609
30586.874,85670,5.519396
30587.043,85671,5.614525
30612.148,85672,5.637099
30640.413,85673,5.549471
30640.503,85674,5.774058
30640.566,85675,5.642291
30640.626,85676,5.543629
30652.382,85677,5.405588
30652.550,85678,5.337073
30677.548,85679,5.397727
30682.322,85680,5.240790
30685.024,85681,5.236391
30704.132,85682,5.180352
30704.211,85683,5.187276
30737.252,85684,9.226664
30740.043,85685,9.949034
30740.111,85686,10.724919
30744.053,85687,12.356238
30744.153,85688,15.593273
30769.492,85689,14.055712
30794.129,85690,10.450352
30794.209,85691,9.631050
30794.276,85692,9.914344
30794.343,85693,10.079502
30818.806,85694,10.020868
30818.905,85695,10.016829
30818.948,85696,9.979903
30833.678,85697,10.207807
30835.363,85698,10.147946
30856.277,85699,10.007237
30856.352,85700,9.949539
30856.411,85701,9.992091
30880.137,85702,10.080801
30880.224,85703,9.803709
30905.354,85704,9.700720
30905.520,85705,9.794478
30905.605,85706,9.954876
30929.335,85707,10.178093
30929.450,85708,10.435495
30934.062,85709,10.643566
30934.120,85710,10.743526
30934.170,85711,10.923470
30960.409,85712,11.122309
30960.467,85713,11.200561
30985.260,85714,11.212605
30985.353,85715,11.000279
30985.404,85716,10.766894
31015.290,85717,10.666356
31015.349,85718,10.493192
31020.737,85719,10.598345
31020.799,85720,10.273365
31020.883,85721,10.176795
31047.251,85722,9.925595
31047.334,85723,9.821451
31047.397,85724,9.725169
31047.458,85725,9.726251
31077.476,85726,9.663721
31097.183,85727,9.698412
31097.287,85728,9.638767
31097.371,85729,9.565852
31118.521,85730,9.649585
31118.706,85731,9.697330
31118.853,85732,9.789790
31119.035,85733,9.727116
31144.978,85734,9.720337
31145.064,85735,9.838833
31167.493,85736,10.021012
31167.570,85737,10.095153
31167.612,85738,10.014305
31194.171,85739,10.170304
31194.257,85740,10.105971
31204.279,85741,10.083974
31204.448,85742,10.049788
31204.591,85743,9.916363
31211.336,85744,9.914632
31211.482,85745,9.832847
31211.520,85746,9.830466
31211.558,85747,10.191075
31239.270,85748,10.921090
31265.238,85749,12.438529
31265.311,85750,15.299233
31289.146,85751,13.514079
31289.245,85752,10.366619
31289.314,85753,9.338236
31311.635,85754,9.891626
31311.724,85755,10.253460
31317.204,85756,10.256345
31317.262,85757,10.180184
31319.107,85758,10.124651
31319.171,85759,10.257210
31319.234,85760,10.236295
31344.133,85761,10.145205
31344.211,85762,10.152201
31344.273,85763,10.043225
31344.334,85764,10.094504
31344.393,85765,10.062482
31371.042,85766,9.917012
31371.109,85767,10.258076
31402.251,85768,10.416960
31402.421,85769,10.560409
31402.535,85770,10.740064
31409.228,85771,10.830649
31409.369,85772,11.137599
31409.487,85773,11.183829
31409.601,85774,11.086897
31435.487,85775,11.022204
31435.607,85776,10.970637
31435.721,85777,10.958377
31461.241,85778,10.744608
31461.387,85779,10.530623
31461.507,85780,10.274015
31491.122,85781,9.996779
31491.241,85782,10.097966
31491.284,85783,10.047985
31491.325,85784,10.009761
31500.298,85785,10.204706
31550.295,85786,10.200378
31550.424,85787,10.275962
31550.483,85788,10.118737
31550.527,85789,5.951910
31576.585,85790,5.535623
31576.667,85791,5.483335
31605.166,85792,5.667606
31605.255,85793,5.665082
31605.323,85794,5.637387
31632.144,85795,5.722491
31632.232,85796,5.663207
31632.294,85797,5.801752
31657.482,85798,5.902506
31657.649,85799,5.915416
31683.164,85800,5.896160
31683.246,85801,5.757325
31683.303,85802,5.775428
31704.170,85803,5.772904
31704.224,85804,5.690108
31711.255,85805,5.637820
31711.349,85806,7.858733
31711.428,85807,10.001683
31738.323,85808,9.991658
31738.540,85809,9.974638
31762.299,85810,10.386668
31762.369,85811,11.066992
31762.420,85812,12.354651
31789.116,85813,15.362628
31789.193,85814,14.136993
31804.245,85815,10.907603
31804.343,85816,9.782073
31804.397,85817,10.159918
31804.446,85818,10.305315
31804.495,85819,9.985095
31810.179,85820,9.194714
31810.276,85821,9.422258
31810.338,85822,9.922494
31810.398,85823,10.165039
31836.212,85824,10.227208
31836.281,85825,10.274015
31836.337,85826,10.136406
31862.338,85827,10.228217
31862.406,85828,10.506967
31862.456,85829,10.713163
31889.174,85830,10.827836
31889.288,85831,10.972801
31889.347,85832,11.292660
31889.403,85833,11.470801
31906.139,85834,11.707792
31906.223,85835,12.028878
31906.286,85836,11.844824
31933.300,85837,11.818427
31933.418,85838,11.685579
31933.518,85839,11.580858
31959.225,85840,11.653124
31959.327,85841,11.101466
31985.237,85842,10.788025
31985.487,85843,10.599139
31985.546,85844,10.477614
31985.604,85845,10.401309
32012.252,85846,10.079286
32014.090,85847,10.121766
32014.154,85848,10.041711
32019.091,85849,9.929057
32019.174,85850,9.960213
32019.243,85851,9.853690
32046.209,85852,9.809118
32046.290,85853,9.946582
32046.349,85854,10.052529
32046.405,85855,10.250719
32074.409,85856,10.245599
32097.141,85857,10.297887
32097.218,85858,10.525935
32097.275,85859,10.443500
32097.332,85860,10.570002
32107.414,85861,10.576925
32133.141,85862,10.632747
32133.219,85863,10.667726
32133.280,85864,10.473575
32133.339,85865,10.378663
32160.359,85866,10.282669
32168.175,85867,10.089527
32168.251,85868,10.134892
32168.312,85869,10.109000
32168.373,85870,10.138859
32194.296,85871,10.223385
32220.488,85872,10.075680
32220.581,85873,10.751820
32220.653,85874,11.639782
32220.722,85875,13.939164
32245.252,85876,16.715269
32245.450,85877,13.112505
32245.494,85878,10.790045
32270.323,85879,10.189272
32270.401,85880,10.401309
32296.218,85881,10.519877
32296.311,85882,10.259157
32296.375,85883,10.721241
32311.165,85884,10.624165
32311.248,85885,10.648686
32338.234,85886,10.527089
32338.365,85887,10.378591
32339.760,85888,10.483311
32363.158,85889,10.334597
32363.242,85890,10.595172
32387.363,85891,10.820480
32387.443,85892,10.827187
32387.505,85893,11.140916
32415.162,85894,11.284583
32415.236,85895,11.381009
32442.919,85896,11.733684
32443.074,85897,11.725751
32443.166,85898,11.835664
32467.252,85899,11.560953
32492.099,85900,11.624131
32492.212,85901,10.594162
32492.284,85902,6.800781
32494.076,85903,6.900020
32494.143,85904,6.446159
32494.198,85905,6.355358
32503.352,85906,6.210321
32503.503,85907,6.006938
32507.110,85908,6.164668
32507.181,85909,6.030450
32510.021,85910,5.901713
32534.138,85911,5.981840
32534.227,85912,5.727251
32534.296,85913,5.958689
32534.362,85914,5.929191
32560.144,85915,5.953568
32560.228,85916,5.955948
32560.291,85917,5.922772
32587.146,85918,6.091249
32587.235,85919,6.038672
32607.164,85920,6.218760
32614.317,85921,6.303142
32614.479,85922,6.183853
32614.609,85923,6.277683
32614.691,85924,6.188541
32641.470,85925,6.184358
32641.564,85926,6.231525
32641.628,85927,6.021723
32667.292,85928,5.978090
32667.378,85929,6.013718
32691.218,85930,10.126021
32691.342,85931,10.178525
32691.440,85932,10.117871
32716.290,85933,10.167924
32716.391,85934,10.157105
32725.495,85935,10.827981
32730.398,85936,11.704331
32730.971,85937,13.976667
32731.549,85938,16.335260
32731.604,85939,12.915036
32731.658,85940,10.599211
32731.711,85941,10.383567
32757.885,85942,10.859931
32758.031,85943,10.934288
32758.137,85944,10.784780
32785.172,85945,10.617818
32785.287,85946,10.562068
32810.165,85947,10.496510
32810.262,85948,10.463334
32810.333,85949,10.456266
32832.578,85950,10.310075
32832.778,85951,10.287645
32839.749,85952,10.239036
32839.823,85953,10.553991
32839.879,85954,10.698955
32862.260,85955,10.931620
32862.408,85956,11.082642
32890.946,85957,11.185632
32891.035,85958,11.237704
32891.094,85959,11.364494
32915.164,85960,11.643821
32915.248,85961,11.856075
32915.309,85962,11.802632
32939.164,85963,11.634950
32939.250,85964,11.540759
32964.284,85965,11.429403
32964.476,85966,11.422407
32964.585,85967,11.261864
32991.689,85968,11.281698
32991.776,85969,10.807787
32991.838,85970,10.582190
32991.911,85971,10.649047
33017.157,85972,10.407800
33017.229,85973,10.193959
33017.281,85974,10.267740
33045.176,85975,10.292333
33045.264,85976,10.286564
33045.325,85977,10.206364
33045.387,85978,10.237521
33045.448,85979,10.175208
33057.308,85980,10.185666
33057.444,85981,10.377509
33082.141,85982,10.331279
33082.225,85983,10.414219
33106.268,85984,10.422585
33106.416,85985,10.407440
33106.517,85986,10.567117
33133.146,85987,10.395251
33133.227,85988,10.533797
33160.140,85989,10.468527
33160.217,85990,10.317215
33160.269,85991,10.409170
33164.243,85992,10.193887
33164.394,85993,10.148379
33196.374,85994,10.128834
33196.501,85995,10.038682
33196.568,85996,10.101500
33215.219,85997,10.291973
33215.420,85998,11.163202
33247.152,85999,12.099052
33249.033,86000,15.110996
33249.108,86001,14.997188
33255.075,86002,11.334419
33255.157,86003,10.043370
33255.217,86004,10.390491
33255.277,86005,10.647605
33255.327,86006,10.676237
33282.116,86007,10.602168
33282.291,86008,10.653951
33307.005,86009,10.582984
33307.085,86010,10.476316
33307.144,86011,10.412272
33331.387,86012,10.438524
33331.994,86013,10.344189
33355.585,86014,10.287645
33355.690,86015,10.149533
33355.759,86016,10.566396
33359.158,86017,10.864763
33359.238,86018,11.097139
33387.808,86019,11.194936
33389.543,86020,11.326197
33389.611,86021,11.539172
33410.245,86022,11.559366
33410.346,86023,11.614106
33437.277,86024,11.601197
33437.407,86025,11.414041
33437.506,86026,11.416060
33462.377,86027,9.538735
33462.478,86028,6.578935
33468.375,86029,6.203903
33468.621,86030,5.949746
33468.750,86031,6.119520
33495.126,86032,5.909718
33495.207,86033,5.930634
33495.267,86034,6.082161
33495.326,86035,6.008741
33520.240,86036,5.898900
33520.317,86037,5.748310
33520.378,86038,5.836371
33546.373,86039,6.059587
33546.491,86040,6.031027
33578.776,86041,5.939000
33580.319,86042,5.820792
33583.462,86043,5.980902
33602.342,86044,6.098028
33602.963,86045,6.076896
33626.958,86046,6.022300
33630.390,86047,5.965685
33632.527,86048,6.149162
33654.282,86049,6.009751
33654.367,86050,5.954290
33676.311,86051,5.885341
33676.409,86052,5.833125
33676.950,86053,9.316744
33677.187,86054,10.281155
33677.289,86055,10.082315
33677.406,86056,10.064718
33678.327,86057,10.141743
33678.995,86058,10.110515
33702.236,86059,10.280938
33702.392,86060,10.946477
33727.818,86061,11.908218
33727.900,86062,14.735386
33727.968,86063,15.440159
33754.340,86064,11.539893
33754.514,86065,10.047408
33754.722,86066,10.238891
33754.963,86067,10.734872
33781.380,86068,10.704869
33781.466,86069,10.632098
33781.532,86070,10.732708
33796.208,86071,10.455977
33796.372,86072,10.202542
33796.506,86073,10.260311
33804.103,86074,10.301060
33804.180,86075,10.279135
33829.507,86076,10.438235
33829.583,86077,10.653519
33829.642,86078,10.873273
33855.250,86079,11.090143
33855.334,86080,11.248883
33886.327,86081,11.571050
33887.585,86082,11.850377
33889.170,86083,12.016329
33889.232,86084,12.171607
33889.292,86085,12.054337
33890.032,86086,11.880812
33890.093,86087,11.770899
33915.310,86088,11.677790
33915.399,86089,11.755032
33915.475,86090,11.267274
33943.624,86091,11.021699
33943.724,86092,10.848031
33967.360,86093,10.554423
33967.497,86094,10.368782
33967.564,86095,10.388832
33998.753,86096,10.412560
33998.871,86097,10.242858
33998.967,86098,10.021372
33999.063,86099,10.066737
34028.581,86100,10.140373
34028.657,86101,10.145782
34028.713,86102,10.209898
34051.522,86103,10.227785
34051.610,86104,10.425903
34075.456,86105,10.501919
34075.558,86106,10.573391
34077.285,86107,10.728741
34107.191,86108,10.758528
34107.327,86109,10.810311
34112.113,86110,10.808075
34114.064,86111,10.860435
34114.140,86112,10.702128
34143.862,86113,10.655610
34143.945,86114,10.736747
34144.003,86115,10.487278
34166.233,86116,10.425470
34166.411,86117,10.454679
34192.440,86118,10.363517
34192.559,86119,10.317287
34192.661,86120,10.339068
34221.731,86121,10.766173
34222.339,86122,11.744863
34231.520,86123,13.727919
34231.887,86124,16.465224
34232.220,86125,13.702316
34252.176,86126,10.884163
34252.290,86127,10.390275
34279.703,86128,10.766317
34279.981,86129,11.025161
34280.230,86130,10.792858
34280.355,86131,10.781679
34280.434,86132,10.749440
34307.121,86133,10.670828
34307.205,86134,10.799421
34311.095,86135,10.972296
34311.208,86136,10.899598
34311.316,86137,10.938399
34338.389,86138,10.917339
34338.515,86139,11.204023
34341.132,86140,11.234386
34341.193,86141,11.426879
34364.153,86142,11.697912
34390.375,86143,11.840208
34390.492,86144,11.936707
34390.544,86145,12.024406
34390.593,86146,12.024406
34412.183,86147,12.054265
34417.346,86148,11.026243
34417.528,86149,7.349194
34442.193,86150,7.345516
34442.346,86151,7.213677
34442.424,86152,7.046355
34467.354,86153,6.702191
34467.505,86154,6.630141
34469.306,86155,6.550735
34469.474,86156,6.483662
34495.185,86157,6.689930
34495.275,86158,6.534147
34495.342,86159,6.456184
34520.906,86160,6.350670
34521.035,86161,6.098821
34527.975,86162,6.296074
34528.047,86163,6.200657
34528.106,86164,6.302493
34551.165,86165,6.324850
34551.240,86166,6.270182
34551.294,86167,6.437865
34551.347,86168,6.373605
34578.969,86169,6.412983
34602.462,86170,6.440894
34602.551,86171,6.343891
34602.620,86172,6.536239
34602.689,86173,6.350959
34634.577,86174,6.344035
34636.204,86175,6.223231
34636.346,86176,6.159620
34636.467,86177,10.332649
34636.588,86178,10.577214
34661.380,86179,10.550889
34661.563,86180,10.566828
34661.686,86181,10.492759
34671.329,86182,10.473431
34671.450,86183,10.834977
34671.541,86184,11.770538
34697.431,86185,13.367528
34697.651,86186,16.249796
34697.740,86187,14.539288
34697.855,86188,11.120290
34728.344,86189,10.371379
34728.878,86190,10.673208
34728.941,86191,11.037710
34732.836,86192,10.932124
34732.966,86193,10.830217
34756.956,86194,10.711576
34782.469,86195,10.671188
34782.569,86196,10.567766
34782.635,86197,10.555649
34782.697,86198,10.460449
34811.162,86199,10.570795
34842.574,86200,10.695854
34842.716,86201,11.166952
34863.505,86202,10.998476
34863.596,86203,11.023863
34888.216,86204,11.203446
34888.452,86205,11.598168
34888.613,86206,11.730799
34899.164,86207,11.810710
34899.244,86208,12.002698
34905.125,86209,11.999236
34905.205,86210,11.943991
34905.261,86211,11.762533
34931.146,86212,11.749767
34931.237,86213,11.890765
34957.395,86214,11.702239
34957.493,86215,11.277515
34957.541,86216,11.027325
34982.114,86217,10.911209
34982.187,86218,10.689579
35007.374,86219,10.538917
35007.486,86220,10.391933
35007.566,86221,10.244589
35016.177,86222,10.401814
35016.264,86223,10.184367
35021.886,86224,10.126165
35024.822,86225,10.109361
35024.884,86226,10.114986
35047.138,86227,10.320677
35047.221,86228,10.287429
35079.215,86229,10.462613
35079.284,86230,10.573319
35097.147,86231,10.582695
35097.219,86232,10.738261
35097.272,86233,10.720880
35121.623,86234,10.882000
35121.700,86235,10.802955
35129.121,86236,10.684098
35129.212,86237,10.682007
35129.269,86238,10.516776
35154.162,86239,10.492110
35154.257,86240,10.571156
35184.780,86241,10.401598
35184.861,86242,10.441265
35184.929,86243,10.413065
35205.453,86244,10.242137
35205.586,86245,10.505813
35225.522,86246,11.267995
35225.638,86247,12.026931
35225.688,86248,14.784285
35251.056,86249,15.417296
35251.121,86250,12.015680
35251.175,86251,10.483672
35251.233,86252,10.591133
35277.519,86253,10.769346
35284.835,86254,10.685252
35286.829,86255,10.755354
35304.230,86256,10.748142
35304.363,86257,10.742228
35304.471,86258,10.794661
35337.090,86259,10.727155
35337.157,86260,10.752109
35337.208,86261,10.537908
35337.257,86262,10.473936
35362.185,86263,10.587888
35364.157,86264,10.639094
35364.284,86265,10.964363
35389.199,86266,11.052207
35389.266,86267,11.337809
35389.317,86268,11.502751
35415.217,86269,11.463372
35415.277,86270,11.764192
35415.319,86271,11.749262
35415.358,86272,11.701806
35441.068,86273,11.691132
35441.132,86274,7.347535
35441.178,86275,7.252839
35467.615,86276,6.828043
35467.794,86277,6.577565
35467.971,86278,6.297949
35468.008,86279,6.169212
35468.042,86280,6.258282
35494.757,86281,6.182699
35494.995,86282,6.242199
35495.045,86283,6.270182
35495.090,86284,6.063914
35522.365,86285,6.147071
35526.360,86286,5.948592
35526.442,86287,6.053385
35532.760,86288,6.108197
35532.846,86289,6.064203
35532.905,86290,6.226693
35565.131,86291,6.102067
35565.203,86292,6.261960
35565.247,86293,6.449549
35565.288,86294,6.377932
35591.397,86295,6.551385
35615.181,86296,6.472483
35615.281,86297,6.425100
35631.052,86298,6.420556
35631.170,86299,6.232823
35631.242,86300,7.982927
35631.310,86301,10.716841
35631.377,86302,10.711216
35657.177,86303,10.658423
35657.236,86304,10.561131
35657.280,86305,10.546490
35685.593,86306,10.482662
35685.674,86307,11.049322
35710.144,86308,11.920551
35710.220,86309,13.575526
35735.489,86310,16.592374
35735.559,86311,14.215822
35735.620,86312,11.240156
35736.167,86313,10.475955
35736.226,86314,10.987009
35762.188,86315,11.145027
35762.271,86316,11.091657
35762.333,86317,11.047735
35787.083,86318,10.963786
35787.178,86319,10.892457
35812.115,86320,10.913805
35812.181,86321,10.926283
35812.230,86322,10.727732
35839.193,86323,10.489514
35839.268,86324,10.599067
35846.192,86325,10.906521
35846.355,86326,11.155124
35846.528,86327,11.348050
35874.546,86328,11.456449
35874.612,86329,11.657956
35874.661,86330,11.833789
35874.708,86331,11.973849
35899.205,86332,12.339289
35930.114,86333,12.381481
35930.198,86334,12.368066
35930.263,86335,12.317581
35930.326,86336,12.145210
35936.016,86337,11.883625
35936.098,86338,11.849511
35936.158,86339,11.747964
35962.410,86340,11.304344
35962.577,86341,11.016290
35964.227,86342,10.732492
35989.334,86343,10.601375
35989.490,86344,10.373182
36014.433,86345,10.449342
36014.593,86346,10.429004
36014.632,86347,10.262042
36043.208,86348,10.217327
36043.354,86349,10.129122
36067.536,86350,10.235429
36067.715,86351,10.399867
36069.935,86352,10.429076
36094.176,86353,10.691671
36094.251,86354,10.633036
36119.551,86355,10.679194
36119.753,86356,10.863681
36119.916,86357,10.920513
36120.060,86358,11.154331
36120.542,86359,10.885678
36140.154,86360,10.864330
36140.231,86361,10.888707
36145.969,86362,10.755571
36146.122,86363,10.739632
36146.242,86364,10.615943
36175.279,86365,10.590701
36175.791,86366,10.620847
36175.840,86367,10.335246
36175.889,86368,10.437082
36197.049,86369,10.788602
36225.236,86370,11.689690
36225.322,86371,13.719770
36225.379,86372,16.688656
36225.433,86373,14.258302
36248.264,86374,11.130170
36254.329,86375,10.291973
36254.404,86376,10.919359
36285.870,86377,11.124689
36286.066,86378,11.237199
36304.373,86379,11.047303
36304.499,86380,11.029633
36304.544,86381,10.994942
36335.819,86382,10.892025
36336.069,86383,10.841395
36356.461,86384,10.760475
36356.548,86385,10.907026
36356.603,86386,10.903636
36359.278,86387,10.858705
36359.420,86388,11.055308
36365.264,86389,11.168106
36365.327,86390,11.375817
36390.270,86391,11.657452
36395.294,86392,11.776957
36395.449,86393,11.993899
36395.571,86394,12.088595
36395.607,86395,12.115712
36402.319,86396,12.105471
36402.398,86397,11.927331
36402.434,86398,11.955530
36427.778,86399,11.712769
36428.071,86400,11.529291
36428.151,86401,11.445126
36445.178,86402,11.257104
36445.260,86403,11.217293
36445.353,86404,11.071680
36445.464,86405,11.109544
36467.436,86406,11.068506
36467.497,86407,10.887697
36467.543,86408,10.926859
36476.427,86409,10.808075
36476.499,86410,10.720952
36489.434,86411,10.730689
36495.053,86412,10.661308
36495.166,86413,10.780957
36495.287,86414,10.789684
36495.361,86415,10.857983
36518.295,86416,10.957078
36518.389,86417,10.965589
36518.464,86418,11.065261
36536.508,86419,11.112428
36536.586,86420,11.116251
36536.647,86421,11.106875
36536.706,86422,10.946837
36540.039,86423,10.951020
36544.103,86424,10.910848
36544.191,86425,10.827836
36556.235,86426,10.716986
36556.354,86427,10.697008
36561.411,86428,10.629358
36585.635,86429,10.513314
36587.284,86430,10.616087
36587.391,86431,11.498279
36587.496,86432,12.453530
36603.196,86433,15.458983
36605.206,86434,16.200898
36605.316,86435,12.041716
36632.253,86436,11.055020
36635.450,86437,10.489586
36635.750,86438,11.009655
36636.017,86439,11.193565
36638.580,86440,11.210153
36647.083,86441,11.340333
36647.164,86442,11.389375
36653.145,86443,11.271961
36653.221,86444,11.126492
36671.546,86445,11.097716
36679.827,86446,11.163058
36679.975,86447,11.001073
36694.183,86448,10.758023
36694.274,86449,10.608370
36697.108,86450,10.663904
36712.134,86451,11.040379
36712.206,86452,11.186065
36718.668,86453,11.149715
36718.783,86454,11.401997
36718.848,86455,11.722000
36737.149,86456,12.081743
36737.235,86457,12.100278
36737.303,86458,12.285415
36737.387,86459,12.298397
36758.957,86460,12.196489
36762.173,86461,11.965627
36762.286,86462,11.658750
36783.145,86463,11.584320
36783.235,86464,11.541552
36804.136,86465,11.273043
36804.206,86466,11.033383
36804.257,86467,10.777207
36821.855,86468,10.653519
36840.098,86469,10.535095
36840.198,86470,10.493625
36840.265,86471,10.541225
36840.330,86472,10.438163
36855.160,86473,10.325437
36855.254,86474,10.297310
36881.105,86475,10.406286
36881.170,86476,10.594235
36881.217,86477,10.574906
36895.298,86478,10.705590
36895.507,86479,10.755210
36919.582,86480,10.716409
36919.822,86481,10.899309
36919.972,86482,10.975614
36945.167,86483,11.006338
36945.271,86484,11.029416
36950.291,86485,10.935370
36950.487,86486,10.946188
36964.160,86487,10.762422
36977.363,86488,10.720447
36977.455,86489,10.744608
36994.116,86490,10.585508
36997.149,86491,10.566828
37000.128,86492,10.540071
37027.921,86493,11.037061
37028.023,86494,11.835953
37033.410,86495,13.172727
37033.551,86496,16.381563
37055.107,86497,14.826837
37055.176,86498,11.466546
37055.226,86499,10.348516
37071.407,86500,10.860868
37071.497,86501,11.067641
37114.406,86502,10.918061
37114.491,86503,10.881423
37114.558,86504,11.054731
37115.998,86505,10.943880
37116.084,86506,10.990687
37126.983,86507,10.938615
37127.060,86508,10.920224
37140.292,86509,10.920657
37150.208,86510,10.785140
37150.343,86511,10.922604
37171.974,86512,10.838006
37172.056,86513,10.934937
37178.606,86514,11.095840
37191.152,86515,11.170126
37191.238,86516,11.434163
37214.206,86517,11.504337
37214.350,86518,11.793329
37214.470,86519,12.014959
37239.242,86520,11.949977
37239.311,86521,12.124295
37245.099,86522,12.029022
37245.179,86523,11.819869
37261.250,86524,11.622905
37271.087,86525,11.352089
37295.103,86526,9.043836
37295.202,86527,6.677020
37295.269,86528,6.460944
37317.643,86529,6.311652
37317.799,86530,6.174405
37317.933,86531,6.383774
37327.570,86532,6.416661
37330.125,86533,6.437288
37341.110,86534,6.563212
37341.206,86535,6.384351
37354.322,86536,6.496788
37369.027,86537,6.544821
37369.144,86538,6.381250
37381.123,86539,6.430004
37381.218,86540,6.468156
37390.358,86541,6.541576
37415.279,86542,6.592638
37415.364,86543,6.590835
37422.256,86544,6.659855
37422.385,86545,6.770562
37436.629,86546,6.663750
37448.204,86547,6.719572
37448.314,86548,6.669303
37462.141,86549,6.516766
37462.232,86550,6.382259
37491.326,86551,7.600754
37491.452,86552,10.938038
37491.512,86553,10.900463
37500.095,86554,10.980157
37500.175,86555,10.904862
37527.768,86556,11.157144
37527.927,86557,11.935913
37528.002,86558,12.916479
37543.613,86559,16.124954
37543.707,86560,16.178973
37565.458,86561,12.214808
37565.610,86562,10.927941
37565.738,86563,11.008501
37587.964,86564,11.497125
37588.046,86565,11.481547
37606.167,86566,11.481475
37606.266,86567,11.289271
37606.341,86568,11.113222
37621.413,86569,11.224650
37621.501,86570,11.212678
37636.180,86571,11.174669
37636.308,86572,11.019680
37648.083,86573,10.814206
37662.200,86574,11.188517
37662.311,86575,11.395794
37678.497,86576,11.488975
37678.663,86577,11.791093
37686.119,86578,11.816696
37710.223,86579,12.068040
37710.295,86580,12.407012
37715.301,86581,12.593013
37715.383,86582,12.705307
37764.231,86583,12.636647
37764.415,86584,12.737040
37764.479,86585,12.539355
37764.532,86586,12.312604
37764.575,86587,12.219640
37790.711,86588,11.853767
37790.792,86589,11.522079
37790.851,86590,11.173515
37797.126,86591,11.067425
37797.207,86592,10.931692
37811.161,86593,10.724703
37811.242,86594,10.855603
37827.594,86595,10.689579
37838.204,86596,10.582407
37838.280,86597,10.681790
37854.160,86598,10.650345
37854.251,86599,10.800142
37860.254,86600,10.829495
37885.701,86601,10.896929
37885.985,86602,11.009583
37890.107,86603,11.082065
37890.180,86604,11.324033
37903.262,86605,11.239435
37917.294,86606,11.295040
37917.418,86607,11.495683
37931.720,86608,11.263812
37931.797,86609,11.284439
37957.276,86610,11.121804
37957.442,86611,11.141277
37957.566,86612,11.149860
37972.685,86613,10.949289
37973.148,86614,10.933350
37981.802,86615,10.788242
37997.665,86616,10.764730
37997.771,86617,10.838006
38019.332,86618,10.922172
38019.478,86619,11.939591
38019.597,86620,13.111856
38037.932,86621,16.345141
38038.024,86622,15.910103
38051.262,86623,11.680891
38051.358,86624,10.868802
38058.313,86625,11.083147
38087.152,86626,11.518617
38087.234,86627,11.452410
38091.050,86628,11.385409
38091.124,86629,11.336366
38115.878,86630,11.334130
38115.969,86631,11.196955
38116.028,86632,11.304993
38131.395,86633,11.235901
38131.618,86634,11.136229
38154.550,86635,11.060429
38154.844,86636,11.194575
38154.982,86637,11.559366
38169.235,86638,11.556842
38169.334,86639,11.581724
38196.017,86640,11.868191
38196.099,86641,11.969233
38196.156,86642,12.230458
38210.152,86643,12.283972
38210.258,86644,12.313758
38234.709,86645,12.360133
38234.800,86646,12.093138
