timestamp_ms,sample_index,raw_ecg_mv
5.877,142625,-1218.090172
5.953,142626,-1217.840414
5.996,142627,-1218.228501
32.407,142628,-1217.967565
33.113,142629,-1218.211480
34.151,142630,-1218.173977
34.186,142631,-1217.484638
57.833,142632,-1215.701071
88.803,142633,-1213.738280
88.854,142634,-1214.680477
88.889,142635,-1217.994322
88.924,142636,-1218.576632
95.697,142637,-1219.153821
95.731,142638,-1218.508766
95.765,142639,-1218.372744
121.913,142640,-1218.022738
121.962,142641,-1217.749830
147.764,142642,-1218.090099
147.813,142643,-1217.682252
147.865,142644,-1217.984153
178.901,142645,-1217.768004
178.963,142646,-1217.530075
183.817,142647,-1217.763244
183.866,142648,-1217.464661
183.902,142649,-1217.614962
185.710,142650,-1217.426869
185.745,142651,-1217.213173
211.092,142652,-1217.424633
211.140,142653,-1216.930744
235.876,142654,-1217.078017
235.925,142655,-1216.854079
235.960,142656,-1216.503063
263.006,142657,-1216.598768
263.055,142658,-1216.038600
270.962,142659,-1216.166688
271.010,142660,-1215.932292
271.043,142661,-1215.786751
296.990,142662,-1216.184718
297.041,142663,-1215.961069
297.075,142664,-1216.597470
324.283,142665,-1216.840376
324.336,142666,-1217.014838
349.056,142667,-1217.635084
349.106,142668,-1217.460117
349.139,142669,-1217.886139
370.795,142670,-1217.758051
370.844,142671,-1217.858156
377.243,142672,-1218.166548
377.285,142673,-1217.804209
401.836,142674,-1218.200518
430.598,142675,-1218.011343
430.694,142676,-1217.966988
430.731,142677,-1218.227491
430.774,142678,-1217.899843
451.873,142679,-1218.140224
451.924,142680,-1218.015526
472.876,142681,-1217.823610
475.372,142682,-1218.038749
475.437,142683,-1217.733458
499.902,142684,-1218.018988
499.955,142685,-1217.953068
499.990,142686,-1217.684271
530.573,142687,-1218.159553
530.633,142688,-1217.743771
551.880,142689,-1218.047259
551.929,142690,-1217.910444
551.963,142691,-1217.700715
579.933,142692,-1217.949174
579.987,142693,-1217.623977
601.919,142694,-1217.670207
601.969,142695,-1217.888303
603.786,142696,-1217.431629
631.091,142697,-1218.007376
631.143,142698,-1217.902078
660.015,142699,-1217.812648
660.063,142700,-1218.101134
660.097,142701,-1217.832697
660.128,142702,-1218.341299
660.160,142703,-1218.017834
665.923,142704,-1218.221794
665.962,142705,-1218.566679
665.994,142706,-1218.312018
666.026,142707,-1218.817446
666.056,142708,-1218.581825
691.877,142709,-1218.446380
691.929,142710,-1218.411329
693.724,142711,-1215.254277
693.763,142712,-1214.421489
719.185,142713,-1215.304762
743.885,142714,-1219.314797
743.933,142715,-1220.152994
743.967,142716,-1219.841213
744.000,142717,-1219.803205
757.996,142718,-1219.247147
782.837,142719,-1219.015059
782.883,142720,-1219.438485
782.917,142721,-1219.060135
782.950,142722,-1219.438846
808.918,142723,-1219.200773
834.900,142724,-1219.115525
834.948,142725,-1219.440216
834.982,142726,-1218.910050
835.015,142727,-1219.339102
854.951,142728,-1219.134637
859.846,142729,-1218.812830
859.879,142730,-1219.361460
859.911,142731,-1218.713086
885.987,142732,-1219.075714
886.066,142733,-1218.725058
886.101,142734,-1218.466286
886.134,142735,-1218.614279
911.047,142736,-1218.107481
911.094,142737,-1218.327957
940.914,142738,-1217.955809
940.966,142739,-1217.959054
941.001,142740,-1218.202898
967.019,142741,-1218.100918
967.065,142742,-1218.631589
992.839,142743,-1218.750517
992.896,142744,-1219.013112
992.936,142745,-1219.516737
1019.078,142746,-1219.458463
1019.125,142747,-1220.053106
1039.015,142748,-1220.037888
1039.068,142749,-1220.029666
1039.104,142750,-1220.206941
1045.884,142751,-1220.143763
1045.933,142752,-1220.498673
1070.978,142753,-1220.424100
1071.020,142754,-1220.362003
1096.821,142755,-1220.616664
1096.871,142756,-1220.330486
1096.905,142757,-1220.637435
1121.947,142758,-1220.479345
1121.997,142759,-1220.484321
1136.802,142760,-1220.414291
1136.850,142761,-1220.680204
1136.885,142762,-1220.824880
1139.683,142763,-1220.688209
1139.718,142764,-1220.664193
1165.029,142765,-1220.764081
1165.076,142766,-1220.598201
1165.108,142767,-1220.810888
1190.905,142768,-1220.699532
1190.962,142769,-1220.534157
1215.917,142770,-1220.683810
1215.966,142771,-1220.429220
1215.999,142772,-1220.731266
1243.935,142773,-1220.641979
1244.015,142774,-1220.650129
1268.984,142775,-1220.871759
1269.032,142776,-1220.849834
1269.064,142777,-1221.110698
1294.889,142778,-1221.042110
1294.980,142779,-1221.099014
1319.828,142780,-1221.201859
1319.877,142781,-1221.378846
1319.912,142782,-1221.446135
1349.821,142783,-1221.379206
1349.876,142784,-1221.429331
1356.978,142785,-1221.468565
1357.031,142786,-1221.056823
1357.066,142787,-1220.199224
1357.100,142788,-1218.682579
1382.054,142789,-1216.933990
1382.115,142790,-1217.699056
1382.151,142791,-1220.986865
1406.971,142792,-1222.170597
1407.017,142793,-1222.253825
1407.052,142794,-1221.715509
1431.797,142795,-1221.526190
1431.844,142796,-1221.371201
1467.948,142797,-1221.344227
1467.999,142798,-1221.353964
1468.033,142799,-1221.168900
1495.012,142800,-1221.298791
1495.072,142801,-1221.184117
1495.107,142802,-1221.159452
1495.142,142803,-1221.134426
1519.912,142804,-1220.980518
1551.865,142805,-1221.013405
1551.916,142806,-1220.804036
1551.951,142807,-1220.993067
1551.985,142808,-1220.849329
1560.757,142809,-1220.622795
1560.797,142810,-1220.635272
1560.832,142811,-1220.390130
1586.791,142812,-1220.244012
1586.841,142813,-1220.154581
1586.876,142814,-1219.894943
1613.821,142815,-1219.905617
1613.873,142816,-1219.697330
1639.924,142817,-1219.745507
1639.987,142818,-1219.825562
1640.024,142819,-1219.826933
1640.059,142820,-1220.141816
1640.093,142821,-1220.284616
1657.815,142822,-1220.566323
1657.862,142823,-1220.837140
1682.579,142824,-1220.890510
1682.634,142825,-1221.159452
1682.669,142826,-1221.128512
1708.821,142827,-1221.213110
1708.870,142828,-1221.282275
1744.835,142829,-1221.221837
1744.883,142830,-1221.359950
1744.917,142831,-1221.197099
1770.193,142832,-1221.238569
1770.250,142833,-1221.230564
1770.289,142834,-1221.115313
1770.321,142835,-1221.269221
1797.134,142836,-1221.154764
1821.853,142837,-1221.161904
1821.901,142838,-1221.162986
1821.935,142839,-1221.030787
1821.967,142840,-1221.181593
1842.812,142841,-1221.072906
1847.678,142842,-1221.113078
1847.716,142843,-1221.115890
1847.751,142844,-1220.911498
1847.785,142845,-1220.935514
1878.329,142846,-1220.865412
1879.266,142847,-1220.890438
1879.303,142848,-1220.773962
1879.339,142849,-1220.658351
1879.373,142850,-1220.889573
1899.849,142851,-1220.855387
1899.890,142852,-1220.985639
1928.347,142853,-1221.078459
1929.310,142854,-1221.033095
1929.355,142855,-1221.192051
1951.793,142856,-1221.066992
1951.844,142857,-1221.081560
1962.813,142858,-1221.089638
1989.743,142859,-1220.971719
1989.834,142860,-1221.104856
2013.840,142861,-1220.972657
2013.890,142862,-1220.805262
2013.925,142863,-1220.051087
2044.518,142864,-1216.786140
2044.599,142865,-1215.668976
2044.667,142866,-1218.005573
2044.725,142867,-1221.210802
2069.926,142868,-1221.761667
2069.976,142869,-1221.414113
2070.011,142870,-1221.052784
2096.587,142871,-1220.628348
2096.683,142872,-1220.566323
2096.748,142873,-1220.538340
2121.931,142874,-1220.387967
2121.980,142875,-1220.459656
2123.804,142876,-1220.267668
2123.846,142877,-1220.271995
2141.870,142878,-1220.247185
2141.919,142879,-1220.110298
2141.953,142880,-1220.165616
2146.790,142881,-1219.928624
2146.873,142882,-1219.931076
2149.854,142883,-1219.936053
2149.916,142884,-1219.675549
2149.951,142885,-1219.612803
2179.322,142886,-1219.489043
2179.405,142887,-1219.197599
2202.996,142888,-1219.201061
2203.081,142889,-1218.830212
2203.143,142890,-1218.727438
2228.196,142891,-1218.595744
2229.264,142892,-1218.382120
2254.086,142893,-1218.564155
2254.145,142894,-1218.408372
2254.209,142895,-1218.520666
2259.903,142896,-1218.715033
2259.955,142897,-1218.877523
2259.990,142898,-1219.275130
2260.025,142899,-1219.269216
2286.374,142900,-1219.505919
2286.460,142901,-1219.598884
2286.670,142902,-1219.598018
2342.378,142903,-1219.696681
2342.436,142904,-1219.658745
2342.473,142905,-1219.727910
2342.507,142906,-1219.753008
2342.541,142907,-1219.658601
2342.574,142908,-1219.782073
2342.607,142909,-1219.567150
2349.730,142910,-1219.612659
2349.768,142911,-1219.564410
2349.802,142912,-1219.451972
2379.025,142913,-1219.572415
2379.079,142914,-1219.408122
2379.119,142915,-1219.503034
2379.156,142916,-1219.483489
2403.815,142917,-1219.356555
2433.811,142918,-1219.435384
2433.863,142919,-1219.247652
2433.898,142920,-1219.398963
2433.932,142921,-1219.272606
2440.759,142922,-1219.035470
2465.925,142923,-1219.200268
2465.982,142924,-1219.152523
2490.822,142925,-1219.371557
2490.871,142926,-1219.491639
2490.908,142927,-1219.515511
2516.793,142928,-1219.742694
2516.841,142929,-1219.740675
2536.737,142930,-1219.913118
2536.832,142931,-1219.942039
2536.870,142932,-1219.898621
2536.904,142933,-1220.073444
2536.950,142934,-1219.984446
2561.841,142935,-1220.130925
2561.891,142936,-1219.849002
2564.678,142937,-1218.651927
2564.717,142938,-1215.459030
2587.832,142939,-1215.336568
2589.697,142940,-1218.517997
2589.732,142941,-1221.025594
2614.839,142942,-1221.271745
2614.892,142943,-1221.061655
2614.927,142944,-1220.494346
2643.178,142945,-1220.416022
2643.261,142946,-1220.408305
2643.329,142947,-1220.337554
2643.390,142948,-1220.456626
2649.832,142949,-1220.305964
2649.882,142950,-1220.445231
2649.917,142951,-1220.428066
2678.574,142952,-1220.317864
2678.634,142953,-1220.463911
2700.835,142954,-1220.320317
2700.899,142955,-1220.403329
2700.936,142956,-1220.359983
2729.773,142957,-1220.256633
2729.822,142958,-1220.350391
2735.742,142959,-1220.118448
2735.783,142960,-1220.185161
2735.817,142961,-1220.050870
2761.938,142962,-1219.855998
2761.986,142963,-1219.830322
2762.019,142964,-1219.599461
2762.052,142965,-1219.694950
2762.084,142966,-1219.680886
2789.826,142967,-1219.730506
2789.877,142968,-1219.998438
2789.913,142969,-1220.043009
2789.948,142970,-1220.444005
2814.925,142971,-1220.678977
2814.972,142972,-1220.857046
2815.006,142973,-1221.236838
2827.541,142974,-1221.243978
2827.588,142975,-1221.479167
2851.826,142976,-1221.511910
2853.706,142977,-1221.482052
2853.743,142978,-1221.627665
2880.016,142979,-1221.598889
2880.065,142980,-1221.595643
2911.856,142981,-1221.746738
2911.904,142982,-1221.637835
2911.938,142983,-1221.756114
2938.797,142984,-1221.703970
2938.845,142985,-1221.648292
2938.880,142986,-1221.792968
2938.914,142987,-1221.657524
2938.947,142988,-1221.785972
2965.870,142989,-1221.746233
2965.917,142990,-1221.732674
2965.951,142991,-1221.846194
2965.983,142992,-1221.700652
2966.015,142993,-1221.790083
2991.835,142994,-1221.679954
2991.888,142995,-1221.707360
2994.662,142996,-1221.736208
2994.715,142997,-1221.501020
3005.848,142998,-1221.648436
3005.898,142999,-1221.698705
3005.934,143000,-1221.829029
3031.774,143001,-1222.055347
3031.822,143002,-1222.035730
3031.857,143003,-1222.232982
3059.878,143004,-1222.259884
3059.927,143005,-1222.208461
3059.963,143006,-1222.387972
3060.013,143007,-1222.236011
3084.807,143008,-1222.419777
3084.857,143009,-1222.389270
3084.893,143010,-1222.342823
3106.855,143011,-1222.183939
3106.905,143012,-1220.714822
3106.940,143013,-1217.476921
3132.909,143014,-1217.193483
3132.958,143015,-1221.149571
3132.994,143016,-1223.280477
3158.834,143017,-1223.324543
3158.890,143018,-1223.023796
3158.926,143019,-1222.515194
3187.399,143020,-1222.345997
3195.847,143021,-1222.424609
3195.897,143022,-1222.277842
3195.932,143023,-1222.361359
3195.966,143024,-1222.300921
3195.999,143025,-1222.231251
3199.826,143026,-1222.283612
3199.871,143027,-1222.117371
3225.058,143028,-1222.217692
3225.114,143029,-1222.058087
3249.892,143030,-1221.970171
3249.946,143031,-1222.036307
3249.981,143032,-1221.832491
3277.560,143033,-1221.839703
3278.355,143034,-1221.633291
3301.903,143035,-1221.466978
3301.982,143036,-1221.442890
3302.045,143037,-1221.164356
3330.960,143038,-1221.208350
3331.909,143039,-1221.005256
3352.779,143040,-1220.897939
3354.720,143041,-1221.057760
3354.756,143042,-1220.943520
3380.774,143043,-1221.144883
3380.825,143044,-1221.206691
3380.860,143045,-1221.447866
3386.788,143046,-1221.749479
3386.833,143047,-1221.767076
3386.868,143048,-1222.071141
3386.903,143049,-1222.101721
3391.770,143050,-1222.180189
3391.814,143051,-1222.326957
3391.848,143052,-1222.199662
3394.708,143053,-1222.427206
3394.743,143054,-1222.326596
3419.795,143055,-1222.276472
3419.847,143056,-1222.348882
3419.883,143057,-1222.160500
3445.817,143058,-1222.330779
3445.869,143059,-1222.246902
3470.887,143060,-1222.157182
3470.936,143061,-1222.296593
3470.971,143062,-1222.156678
3481.776,143063,-1222.287939
3481.830,143064,-1222.264716
3487.131,143065,-1222.210120
3487.182,143066,-1222.327245
3487.216,143067,-1222.112755
3492.803,143068,-1222.282458
3492.852,143069,-1222.254979
3516.940,143070,-1222.200311
3516.990,143071,-1222.318951
3543.017,143072,-1222.091407
3543.069,143073,-1222.241709
3568.918,143074,-1222.364965
3568.974,143075,-1222.231684
3569.009,143076,-1222.560487
3593.843,143077,-1222.653307
3593.894,143078,-1222.730838
3593.929,143079,-1222.827481
3599.731,143080,-1222.756225
3599.782,143081,-1222.974104
3603.803,143082,-1222.843203
3603.864,143083,-1222.885827
3629.709,143084,-1222.943380
3629.757,143085,-1222.760119
3629.793,143086,-1222.519666
3654.820,143087,-1220.655466
3654.875,143088,-1217.448217
3680.836,143089,-1218.849973
3680.895,143090,-1222.349675
3680.931,143091,-1223.671232
3708.831,143092,-1223.889255
3708.884,143093,-1223.594855
3721.776,143094,-1223.176838
3723.667,143095,-1222.941866
3723.702,143096,-1222.966315
3751.133,143097,-1222.924124
3751.186,143098,-1222.933500
3751.222,143099,-1223.037932
3774.936,143100,-1222.865056
3775.054,143101,-1222.941794
3799.818,143102,-1222.837866
3799.871,143103,-1222.767980
3799.906,143104,-1222.773029
3799.941,143105,-1222.661168
3799.975,143106,-1222.734083
3813.849,143107,-1222.619626
3813.901,143108,-1222.503078
3838.820,143109,-1222.459805
3838.870,143110,-1222.262624
3838.905,143111,-1222.160211
3863.880,143112,-1221.954448
3863.931,143113,-1221.790011
3896.044,143114,-1221.774217
3896.167,143115,-1221.741834
3896.230,143116,-1221.828524
3900.820,143117,-1221.786838
3900.876,143118,-1221.946082
3900.910,143119,-1222.072872
3900.945,143120,-1222.267528
3927.531,143121,-1222.585296
3928.323,143122,-1222.677468
3928.364,143123,-1222.791204
3952.889,143124,-1223.017666
3952.940,143125,-1223.040889
3983.576,143126,-1223.082647
3983.665,143127,-1223.137243
3983.727,143128,-1223.076661
3995.791,143129,-1223.207922
4001.691,143130,-1223.143301
4001.741,143131,-1223.211096
4001.788,143132,-1223.017449
4001.821,143133,-1223.062092
4028.151,143134,-1223.150153
4028.226,143135,-1223.003530
4052.521,143136,-1223.093537
4052.578,143137,-1223.119790
4052.614,143138,-1223.093465
4079.820,143139,-1222.998048
4079.892,143140,-1222.907896
4105.828,143141,-1223.039663
4105.879,143142,-1222.832818
4105.915,143143,-1222.773029
4110.773,143144,-1222.762355
4110.819,143145,-1222.806566
4136.817,143146,-1222.980667
4136.866,143147,-1223.103346
4136.901,143148,-1223.231290
4161.932,143149,-1223.273120
4161.981,143150,-1223.310263
4187.954,143151,-1223.519921
4188.012,143152,-1223.198547
4188.047,143153,-1223.321081
4204.955,143154,-1223.493524
4205.014,143155,-1223.407844
4205.049,143156,-1223.539826
4205.083,143157,-1222.953045
4209.849,143158,-1221.240949
4234.799,143159,-1218.060530
4234.848,143160,-1219.173222
4234.884,143161,-1223.147845
4234.918,143162,-1224.128771
4260.822,143163,-1224.416897
4260.873,143164,-1223.982148
4260.908,143165,-1223.496625
4286.800,143166,-1223.495832
4286.851,143167,-1223.283650
4311.811,143168,-1223.241603
4311.867,143169,-1223.362046
4311.902,143170,-1223.287184
4311.937,143171,-1223.233742
4311.971,143172,-1223.253720
4337.831,143173,-1223.011175
4337.881,143174,-1223.230064
4337.916,143175,-1223.080411
4364.430,143176,-1223.053221
4364.491,143177,-1222.980523
4389.841,143178,-1222.835631
4389.892,143179,-1222.773678
4389.927,143180,-1222.654172
4394.799,143181,-1222.522406
4394.847,143182,-1222.436942
4419.826,143183,-1222.234280
4419.890,143184,-1222.165332
4419.927,143185,-1221.953439
4445.829,143186,-1221.946082
4470.778,143187,-1221.905911
4470.861,143188,-1221.879009
4470.897,143189,-1222.072728
4470.930,143190,-1222.169876
4470.963,143191,-1222.395184
4470.996,143192,-1222.608520
4496.877,143193,-1222.731775
4496.923,143194,-1222.965882
4524.597,143195,-1223.042980
4524.657,143196,-1223.136306
4524.722,143197,-1223.197609
4527.627,143198,-1223.139263
4528.323,143199,-1223.185204
4551.889,143200,-1223.093898
4551.938,143201,-1223.147196
4551.971,143202,-1223.121376
4579.295,143203,-1223.063679
4579.342,143204,-1223.106015
4603.903,143205,-1223.041610
4603.954,143206,-1223.057260
4603.988,143207,-1223.071036
4629.890,143208,-1222.943452
4629.938,143209,-1222.888063
4639.247,143210,-1222.765168
4639.302,143211,-1222.882942
4646.899,143212,-1222.792069
4646.940,143213,-1222.629363
4646.973,143214,-1222.710427
4672.021,143215,-1222.684103
4672.067,143216,-1222.912296
4696.855,143217,-1222.996967
4696.907,143218,-1223.087912
4696.943,143219,-1223.232444
4724.540,143220,-1223.200350
4724.590,143221,-1223.297425
4734.832,143222,-1223.344016
4734.879,143223,-1223.378129
4734.914,143224,-1223.450900
4741.893,143225,-1223.296920
4741.954,143226,-1223.403733
4767.079,143227,-1223.070531
4767.127,143228,-1221.510973
4767.159,143229,-1218.220495
4794.995,143230,-1218.301993
4795.045,143231,-1222.443000
4819.109,143232,-1224.371388
4819.157,143233,-1224.306695
4819.189,143234,-1223.910676
4840.868,143235,-1223.424936
4840.921,143236,-1223.360604
4845.921,143237,-1223.368105
4845.962,143238,-1223.238863
4848.874,143239,-1223.375966
4874.150,143240,-1223.205398
4874.199,143241,-1223.217587
4898.879,143242,-1223.215784
4898.927,143243,-1223.102697
4927.962,143244,-1223.189459
4928.920,143245,-1222.991630
4928.957,143246,-1223.024301
4949.940,143247,-1222.994226
4949.986,143248,-1222.818610
4950.019,143249,-1222.865633
4950.051,143250,-1222.654461
4971.056,143251,-1222.606572
4979.258,143252,-1222.480648
4979.308,143253,-1222.265581
4979.342,143254,-1222.242646
4979.374,143255,-1222.090037
5001.987,143256,-1222.136556
5029.615,143257,-1222.163241
5029.666,143258,-1222.185021
5029.701,143259,-1222.456631
5029.734,143260,-1222.479494
5053.018,143261,-1222.811542
5071.086,143262,-1222.979657
5071.132,143263,-1222.993144
5071.164,143264,-1223.288266
5071.194,143265,-1223.376831
5096.945,143266,-1223.366013
5098.711,143267,-1223.554250
5098.751,143268,-1223.461935
5123.919,143269,-1223.580935
5124.141,143270,-1223.565574
5124.180,143271,-1223.473330
5155.982,143272,-1223.613967
5156.030,143273,-1223.452343
5161.124,143274,-1223.505640
5161.173,143275,-1223.458184
5161.205,143276,-1223.500808
5186.891,143277,-1223.705922
5186.941,143278,-1223.518839
5188.756,143279,-1223.550716
5188.803,143280,-1223.482922
5213.897,143281,-1223.427316
5213.943,143282,-1223.451405
5213.975,143283,-1223.221914
5240.191,143284,-1223.356349
5240.284,143285,-1223.396665
5267.043,143286,-1223.542278
5267.088,143287,-1223.756696
5267.119,143288,-1223.735781
5274.456,143289,-1223.878293
5274.507,143290,-1223.995058
5298.977,143291,-1223.972916
5299.027,143292,-1224.128771
5299.061,143293,-1224.047490
5329.404,143294,-1224.161875
5329.452,143295,-1224.154735
5349.903,143296,-1224.138796
5349.952,143297,-1223.914642
5349.988,143298,-1222.252311
5370.027,143299,-1219.049029
5370.064,143300,-1219.445842
5377.172,143301,-1223.408925
5378.210,143302,-1225.135157
5378.253,143303,-1225.176987
5402.005,143304,-1224.810970
5402.052,143305,-1224.377663
5430.231,143306,-1224.136560
5430.279,143307,-1224.231689
5430.313,143308,-1224.083046
5430.345,143309,-1224.185243
5430.377,143310,-1224.113842
5454.055,143311,-1224.035951
5454.104,143312,-1224.183151
5479.640,143313,-1223.975513
5479.705,143314,-1224.012439
5479.741,143315,-1223.966209
5486.882,143316,-1223.889111
5486.933,143317,-1223.935846
5488.782,143318,-1223.701523
5488.844,143319,-1223.742632
5512.897,143320,-1223.619232
5514.779,143321,-1223.446212
5514.814,143322,-1223.434240
5539.937,143323,-1223.199196
5540.030,143324,-1223.241459
5570.000,143325,-1223.089787
5570.049,143326,-1223.037355
5570.082,143327,-1223.203307
5595.869,143328,-1223.127651
5595.919,143329,-1223.328293
5621.116,143330,-1223.519271
5621.164,143331,-1223.604663
5621.197,143332,-1223.906132
5645.941,143333,-1223.964478
5645.992,143334,-1224.251883
5656.888,143335,-1224.250441
5656.931,143336,-1224.252893
5656.964,143337,-1224.451588
5661.811,143338,-1224.370235
5661.851,143339,-1224.519454
5664.825,143340,-1224.446900
5664.876,143341,-1224.393746
5689.957,143342,-1224.475460
5690.006,143343,-1224.344127
5690.041,143344,-1224.479932
5716.168,143345,-1224.407666
5716.215,143346,-1224.340953
5742.400,143347,-1224.396415
5742.453,143348,-1224.208177
5742.490,143349,-1224.366340
5773.052,143350,-1224.231040
5773.100,143351,-1224.095523
5778.979,143352,-1224.186252
5779.035,143353,-1224.099706
5779.086,143354,-1224.353142
5804.902,143355,-1224.449424
5804.952,143356,-1224.524791
5804.985,143357,-1224.688652
5855.912,143358,-1224.685262
5855.971,143359,-1224.720097
5856.007,143360,-1224.846958
5856.042,143361,-1224.736324
5874.591,143362,-1224.902276
5879.721,143363,-1224.808446
5879.765,143364,-1224.863979
5879.800,143365,-1225.031878
5879.833,143366,-1224.467887
5903.454,143367,-1222.305320
5903.505,143368,-1219.173222
5903.537,143369,-1221.579993
5929.811,143370,-1224.916989
5929.879,143371,-1225.373230
5955.823,143372,-1225.805960
5955.873,143373,-1225.318418
5955.908,143374,-1225.000794
5977.758,143375,-1224.913959
5977.800,143376,-1224.774188
5982.742,143377,-1224.886842
5982.780,143378,-1224.817966
5982.814,143379,-1224.695142
6008.870,143380,-1224.777217
6008.956,143381,-1224.584869
6034.876,143382,-1224.682593
6034.928,143383,-1224.551188
6034.962,143384,-1224.483610
6059.895,143385,-1224.495510
6059.944,143386,-1224.302657
6086.805,143387,-1224.364393
6086.856,143388,-1224.221520
6086.891,143389,-1224.145864
6093.921,143390,-1224.132161
6093.966,143391,-1223.849588
6094.001,143392,-1223.879880
6094.035,143393,-1223.701379
6119.941,143394,-1223.660125
6120.002,143395,-1223.738738
6120.039,143396,-1223.663298
6144.977,143397,-1223.874254
6145.036,143398,-1223.891924
6169.912,143399,-1224.054270
6169.973,143400,-1224.376725
6170.016,143401,-1224.380836
6186.872,143402,-1224.674516
6186.922,143403,-1224.765894
6193.854,143404,-1224.733006
6193.898,143405,-1224.891241
6193.933,143406,-1224.874725
6219.818,143407,-1224.937543
6219.867,143408,-1224.865782
6219.902,143409,-1224.840684
6219.935,143410,-1224.908118
6245.815,143411,-1224.835491
6270.947,143412,-1224.974686
6271.007,143413,-1224.837006
6271.040,143414,-1224.818254
6300.839,143415,-1224.831669
6300.897,143416,-1224.488947
6306.794,143417,-1224.847968
6306.829,143418,-1224.559987
6331.824,143419,-1224.515271
6331.873,143420,-1224.607298
6356.836,143421,-1224.556236
6356.886,143422,-1224.760701
6356.921,143423,-1224.808878
6384.799,143424,-1224.843641
6384.849,143425,-1225.050269
6393.805,143426,-1224.993870
6393.850,143427,-1225.142946
6393.883,143428,-1225.119506
6419.825,143429,-1225.208721
6419.876,143430,-1225.257475
6419.910,143431,-1225.148355
6419.944,143432,-1225.321447
6446.815,143433,-1224.965599
6446.866,143434,-1223.694166
6446.901,143435,-1220.625752
6472.841,143436,-1220.079070
6472.892,143437,-1224.251883
6472.927,143438,-1225.691359
6500.018,143439,-1226.011795
6500.096,143440,-1226.041870
6500.150,143441,-1225.412825
6500.184,143442,-1225.302984
6506.843,143443,-1225.094624
6506.894,143444,-1225.123761
6506.929,143445,-1225.101981
6531.802,143446,-1224.938409
6531.851,143447,-1225.122175
6557.097,143448,-1224.936966
6558.795,143449,-1224.939346
6558.919,143450,-1224.967329
6584.814,143451,-1224.768490
6584.863,143452,-1224.717356
6600.799,143453,-1224.671126
6600.850,143454,-1224.688363
6600.885,143455,-1224.688868
6605.728,143456,-1224.456853
6605.764,143457,-1224.415383
6629.835,143458,-1224.330207
6629.885,143459,-1224.028955
6629.921,143460,-1224.081676
6655.833,143461,-1223.940534
6655.882,143462,-1223.840718
6680.833,143463,-1223.915796
6680.886,143464,-1223.971979
6680.921,143465,-1224.163534
6701.974,143466,-1224.146369
6702.035,143467,-1224.346074
6730.444,143468,-1224.629223
6730.514,143469,-1224.605567
6730.550,143470,-1224.838592
6752.961,143471,-1224.712740
6774.788,143472,-1225.001443
6774.889,143473,-1225.114962
6774.951,143474,-1224.989110
6779.438,143475,-1225.144316
6801.816,143476,-1225.085825
6801.868,143477,-1225.060727
6832.492,143478,-1225.078613
6832.557,143479,-1224.861671
6832.599,143480,-1224.922181
6832.643,143481,-1224.655836
6832.678,143482,-1224.927374
6854.810,143483,-1224.777938
6854.861,143484,-1224.714183
6880.787,143485,-1224.996250
6880.837,143486,-1224.667736
6900.953,143487,-1224.557390
6901.013,143488,-1224.669828
6901.049,143489,-1224.553784
6906.827,143490,-1224.797267
6906.869,143491,-1224.840900
6906.905,143492,-1224.890159
6934.833,143493,-1225.060799
6934.882,143494,-1224.981321
6934.916,143495,-1225.365080
6934.950,143496,-1225.205042
6959.825,143497,-1225.235838
6985.821,143498,-1225.303921
6985.873,143499,-1225.153115
6985.909,143500,-1225.366667
6985.943,143501,-1224.879557
7011.847,143502,-1223.032234
7031.792,143503,-1219.719183
7031.842,143504,-1220.703499
7031.878,143505,-1224.966248
7031.912,143506,-1225.848079
7057.803,143507,-1226.060477
7057.855,143508,-1225.751652
7057.891,143509,-1225.208865
7082.779,143510,-1225.191844
7082.829,143511,-1225.002885
7117.890,143512,-1225.002308
7117.941,143513,-1224.987235
7117.975,143514,-1224.830443
7143.886,143515,-1224.929610
7143.947,143516,-1224.795464
7168.822,143517,-1224.754138
7168.873,143518,-1224.728895
7168.908,143519,-1224.570300
7195.582,143520,-1224.652519
7195.679,143521,-1224.420431
7195.715,143522,-1224.398073
7195.800,143523,-1224.357253
7224.864,143524,-1224.079152
7224.918,143525,-1224.102735
7224.956,143526,-1223.850310
7250.077,143527,-1223.816196
7250.137,143528,-1223.708014
7277.480,143529,-1223.547183
7277.532,143530,-1223.740396
7277.571,143531,-1223.632575
7294.805,143532,-1223.767514
7294.858,143533,-1223.921494
7296.733,143534,-1223.993832
7296.769,143535,-1224.348670
7302.805,143536,-1224.399877
7302.858,143537,-1224.594605
7302.913,143538,-1224.691392
7330.098,143539,-1224.656557
7330.146,143540,-1224.895568
7330.181,143541,-1224.776496
7353.859,143542,-1224.858714
7353.912,143543,-1224.871263
7379.868,143544,-1224.775486
7379.917,143545,-1224.894270
7379.953,143546,-1224.747359
7404.975,143547,-1224.700263
7405.026,143548,-1224.850997
7430.828,143549,-1224.667592
7430.910,143550,-1224.648840
7430.973,143551,-1224.543182
7456.829,143552,-1224.479210
7456.880,143553,-1224.584292
7484.844,143554,-1224.286429
7484.924,143555,-1224.334606
7484.983,143556,-1224.400958
7491.813,143557,-1224.358046
7491.862,143558,-1224.673867
7515.985,143559,-1224.628574
7516.059,143560,-1224.792795
7516.094,143561,-1224.848689
7542.808,143562,-1224.815658
7542.860,143563,-1224.988028
7566.873,143564,-1224.833688
7566.926,143565,-1224.944828
7568.716,143566,-1224.917277
7568.750,143567,-1224.877466
7568.784,143568,-1224.893910
7594.857,143569,-1223.608342
7594.915,143570,-1220.365248
7618.873,143571,-1218.954982
7618.923,143572,-1223.119357
7618.957,143573,-1225.643758
7645.818,143574,-1225.759802
7645.871,143575,-1225.514588
7653.739,143576,-1225.027912
7653.774,143577,-1224.761566
7653.808,143578,-1224.851142
7661.824,143579,-1224.675309
7661.876,143580,-1224.724784
7661.911,143581,-1224.726011
7661.946,143582,-1224.565973
7667.738,143583,-1224.642205
7667.774,143584,-1224.450578
7667.808,143585,-1224.497096
7699.818,143586,-1224.433052
7699.881,143587,-1224.277053
7699.918,143588,-1224.349680
7728.153,143589,-1224.112544
7729.004,143590,-1224.137642
7749.873,143591,-1224.000539
7749.954,143592,-1223.771914
7750.014,143593,-1223.803359
7750.068,143594,-1223.526267
7750.128,143595,-1223.542495
7777.965,143596,-1223.435538
7780.714,143597,-1223.341564
7801.169,143598,-1223.510833
7801.222,143599,-1223.413613
7801.258,143600,-1223.607116
7830.057,143601,-1223.766649
7830.109,143602,-1223.882043
7833.753,143603,-1224.194186
7833.797,143604,-1224.225414
7833.832,143605,-1224.456708
7839.711,143606,-1224.502361
7839.754,143607,-1224.479787
7839.791,143608,-1224.693267
7839.828,143609,-1224.558905
7845.731,143610,-1224.668025
7845.769,143611,-1224.636580
7845.803,143612,-1224.550178
7851.774,143613,-1224.651942
7851.820,143614,-1224.484836
7879.777,143615,-1224.561573
7879.829,143616,-1224.437885
7879.864,143617,-1224.267389
7902.152,143618,-1224.454256
7902.220,143619,-1224.209548
7929.457,143620,-1224.194041
7929.516,143621,-1224.126536
7929.559,143622,-1224.104827
7954.827,143623,-1224.337924
7954.878,143624,-1224.324149
7981.993,143625,-1224.542605
7982.052,143626,-1224.608669
7982.089,143627,-1224.573113
8004.807,143628,-1224.803325
8004.856,143629,-1224.705312
8029.787,143630,-1224.809672
8029.838,143631,-1224.769716
8029.874,143632,-1224.737838
8047.974,143633,-1224.979230
8048.037,143634,-1224.614438
8048.072,143635,-1223.084090
8048.106,143636,-1219.303185
8054.912,143637,-1219.447284
8054.996,143638,-1223.954309
8055.053,143639,-1225.614261
8081.490,143640,-1225.784395
8081.544,143641,-1225.136743
8105.878,143642,-1224.828063
8105.937,143643,-1224.779597
8105.973,143644,-1224.687714
8132.778,143645,-1224.607226
8132.826,143646,-1224.698316
8156.919,143647,-1224.497746
8158.756,143648,-1224.603764
8158.801,143649,-1224.489091
8184.804,143650,-1224.411632
8184.855,143651,-1224.457357
8208.908,143652,-1224.285780
8208.981,143653,-1224.316071
8209.042,143654,-1224.212360
8223.919,143655,-1224.075257
8223.969,143656,-1224.099418
8229.757,143657,-1223.840501
8229.801,143658,-1223.864157
8229.835,143659,-1223.690560
8236.777,143660,-1223.545379
8236.815,143661,-1223.545812
8236.850,143662,-1223.320793
8236.884,143663,-1223.450612
8241.746,143664,-1223.418301
8266.849,143665,-1223.428975
8266.931,143666,-1223.606683
8266.993,143667,-1223.642383
8267.053,143668,-1223.958564
8292.777,143669,-1224.085643
8318.915,143670,-1224.177381
8318.965,143671,-1224.411849
8319.000,143672,-1224.349319
8319.056,143673,-1224.574916
8344.908,143674,-1224.516497
8370.839,143675,-1224.518661
8370.920,143676,-1224.684757
8370.976,143677,-1224.507194
8371.032,143678,-1224.608741
8396.847,143679,-1224.518589
8396.898,143680,-1224.474595
8396.933,143681,-1224.560203
8421.228,143682,-1224.413868
8421.313,143683,-1224.531571
8425.359,143684,-1224.361075
8425.432,143685,-1224.244310
8425.473,143686,-1224.426634
8430.747,143687,-1224.176588
8430.792,143688,-1224.204499
8439.828,143689,-1224.120910
8439.907,143690,-1224.194402
8465.819,143691,-1224.401535
8465.873,143692,-1224.392592
8465.927,143693,-1224.659370
8492.393,143694,-1224.646460
8492.492,143695,-1224.689589
8516.794,143696,-1224.808157
8516.846,143697,-1224.678987
8516.882,143698,-1224.834914
8566.763,143699,-1224.788035
8566.838,143700,-1224.813783
8566.875,143701,-1225.013271
8569.709,143702,-1224.607731
8569.744,143703,-1222.851497
8593.831,143704,-1219.209139
8593.883,143705,-1220.252883
8617.809,143706,-1224.301791
8619.731,143707,-1225.586133
8619.768,143708,-1225.720496
8624.508,143709,-1224.984783
8624.601,143710,-1224.688291
8624.646,143711,-1224.684757
8624.685,143712,-1224.633695
8624.723,143713,-1224.676824
8640.804,143714,-1224.547005
8640.854,143715,-1224.570228
8664.844,143716,-1224.573329
8664.895,143717,-1224.384875
8664.929,143718,-1224.568208
8691.831,143719,-1224.339871
8691.884,143720,-1224.319317
8716.306,143721,-1224.311672
8716.385,143722,-1224.152283
8716.444,143723,-1224.221015
8741.784,143724,-1224.017271
8741.833,143725,-1223.921133
8766.788,143726,-1223.908007
8766.837,143727,-1223.682627
8766.871,143728,-1223.672314
8793.885,143729,-1223.525979
8793.938,143730,-1223.533119
8794.000,143731,-1223.608486
8794.049,143732,-1223.503621
8811.792,143733,-1223.703182
8811.837,143734,-1223.714000
8811.871,143735,-1223.875841
8818.861,143736,-1224.061482
8818.922,143737,-1224.114780
8843.801,143738,-1224.270058
8843.854,143739,-1224.468248
8843.890,143740,-1224.399155
8868.845,143741,-1224.634921
8868.930,143742,-1224.568713
8893.833,143743,-1224.606505
8893.881,143744,-1224.645523
8893.915,143745,-1224.506617
8919.945,143746,-1224.605207
8920.007,143747,-1224.501784
8946.280,143748,-1224.494789
8946.426,143749,-1224.545490
8946.504,143750,-1224.384587
8970.849,143751,-1224.490894
8970.898,143752,-1224.381774
8995.782,143753,-1224.369008
8995.829,143754,-1224.406584
8995.863,143755,-1224.288737
9020.869,143756,-1224.397064
9020.952,143757,-1224.238180
9020.988,143758,-1224.218707
9021.027,143759,-1224.273808
9022.709,143760,-1224.024267
9029.772,143761,-1224.105765
9029.825,143762,-1224.042153
9029.863,143763,-1224.143412
9029.900,143764,-1224.314412
9056.066,143765,-1224.295733
9056.268,143766,-1224.518084
9056.309,143767,-1224.473296
9080.878,143768,-1224.550971
9080.933,143769,-1224.608597
9107.006,143770,-1224.485557
9107.073,143771,-1224.619703
9107.113,143772,-1224.523709
9132.471,143773,-1224.565179
9132.792,143774,-1224.509213
9155.824,143775,-1223.579132
9155.877,143776,-1220.782544
9155.913,143777,-1218.856320
9182.915,143778,-1222.681434
9182.968,143779,-1225.192493
9204.805,143780,-1225.385635
9204.854,143781,-1225.378495
9204.889,143782,-1224.715337
9210.770,143783,-1224.481879
9210.811,143784,-1224.445890
9210.845,143785,-1224.298906
9210.877,143786,-1224.383144
9235.766,143787,-1224.251594
9235.817,143788,-1224.230030
9235.857,143789,-1224.218274
9261.862,143790,-1224.083840
9261.912,143791,-1224.228876
9287.205,143792,-1224.041504
9288.096,143793,-1224.019651
9288.131,143794,-1223.966570
9313.817,143795,-1223.749916
9313.867,143796,-1223.824779
9338.858,143797,-1223.581440
9338.902,143798,-1223.511410
9338.935,143799,-1223.419167
9364.135,143800,-1223.219173
9364.183,143801,-1223.300671
9380.858,143802,-1223.111784
9380.904,143803,-1223.140128
9380.938,143804,-1223.160322
9387.060,143805,-1223.089210
9387.182,143806,-1223.335578
9390.073,143807,-1223.290213
9390.191,143808,-1223.509030
9392.795,143809,-1223.755614
9419.077,143810,-1223.765062
9419.124,143811,-1224.085715
9419.157,143812,-1224.084849
9444.791,143813,-1224.199234
9444.854,143814,-1224.288953
9469.930,143815,-1224.156466
9469.969,143816,-1224.308787
9470.001,143817,-1224.170313
9470.032,143818,-1224.148893
9496.838,143819,-1224.210341
9521.048,143820,-1224.026503
9521.094,143821,-1224.208105
9521.126,143822,-1224.110813
9521.156,143823,-1224.098552
9546.953,143824,-1224.124156
9547.002,143825,-1224.061842
9547.035,143826,-1224.185315
9572.008,143827,-1224.036528
9572.055,143828,-1224.079440
9579.844,143829,-1224.002558
9579.905,143830,-1223.990947
9579.943,143831,-1224.134036
9583.453,143832,-1224.050447
9583.498,143833,-1223.809561
9596.836,143834,-1223.907719
9596.885,143835,-1223.905122
9620.839,143836,-1224.089393
9620.886,143837,-1224.212721
9620.918,143838,-1224.211855
9646.793,143839,-1224.433269
9646.840,143840,-1224.342323
9671.860,143841,-1224.495221
9671.909,143842,-1224.494212
9671.943,143843,-1224.361219
9698.829,143844,-1224.631171
9698.872,143845,-1224.502361
9723.002,143846,-1224.503371
9724.857,143847,-1224.099778
9724.898,143848,-1221.909012
9750.833,143849,-1219.173727
9750.884,143850,-1221.221693
9767.939,143851,-1224.660957
9770.822,143852,-1225.102341
9770.863,143853,-1225.322673
9775.146,143854,-1225.229419
9775.278,143855,-1224.719159
9778.755,143856,-1224.536691
9778.795,143857,-1224.450506
9778.938,143858,-1224.378168
9803.824,143859,-1224.504886
9803.871,143860,-1224.317442
9829.448,143861,-1224.357685
9829.496,143862,-1224.299195
9829.530,143863,-1224.178679
9854.919,143864,-1224.311888
9854.953,143865,-1224.083840
9879.851,143866,-1224.118746
9879.899,143867,-1224.093792
9879.934,143868,-1223.935413
9904.531,143869,-1223.992534
9930.767,143870,-1223.772202
9930.823,143871,-1223.725179
9930.858,143872,-1223.647143
9955.999,143873,-1223.435033
9959.928,143874,-1223.528503
9959.966,143875,-1223.331611
9965.070,143876,-1223.483571
9965.118,143877,-1223.526484
9965.150,143878,-1223.416498
9971.071,143879,-1223.705706
9971.118,143880,-1223.895963
9971.150,143881,-1224.089249
9971.182,143882,-1224.184233
9996.945,143883,-1224.247339
9996.994,143884,-1224.460531
9997.028,143885,-1224.388193
10024.003,143886,-1224.523060
10024.054,143887,-1224.564530
10049.864,143888,-1224.470988
10049.916,143889,-1224.594316
10049.950,143890,-1224.388842
10075.180,143891,-1224.560131
10075.232,143892,-1224.443510
10100.900,143893,-1224.448487
10100.952,143894,-1224.531282
10100.986,143895,-1224.346795
10128.206,143896,-1224.377591
10128.911,143897,-1224.324293
10134.802,143898,-1224.235872
10134.843,143899,-1224.307849
10134.877,143900,-1224.188416
10140.940,143901,-1224.318235
10140.975,143902,-1224.127040
10143.705,143903,-1223.972412
10143.737,143904,-1224.088383
10151.947,143905,-1224.032994
10179.815,143906,-1224.258374
10179.863,143907,-1224.392304
10201.856,143908,-1224.306695
10201.904,143909,-1224.537773
10228.843,143910,-1224.517435
10229.704,143911,-1224.588402
10229.739,143912,-1224.650499
10251.980,143913,-1224.607082
10252.029,143914,-1224.738488
10279.961,143915,-1224.570516
10280.012,143916,-1224.548663
10280.046,143917,-1223.904401
10305.701,143918,-1221.290713
10305.753,143919,-1219.096124
10313.901,143920,-1222.087946
10313.949,143921,-1224.979085
10313.983,143922,-1225.216582
10321.882,143923,-1225.399843
10321.923,143924,-1225.103062
10321.957,143925,-1224.597634
10321.988,143926,-1224.499188
10354.062,143927,-1224.531354
10354.117,143928,-1224.377663
10354.150,143929,-1224.446034
10379.475,143930,-1224.361436
10379.522,143931,-1224.260538
10403.170,143932,-1224.361075
10403.220,143933,-1224.149759
10403.254,143934,-1224.210701
10429.779,143935,-1224.125598
10429.829,143936,-1223.979263
10454.896,143937,-1224.084777
10454.948,143938,-1223.853195
10454.982,143939,-1223.851031
10481.483,143940,-1223.728929
10481.531,143941,-1223.543432
10505.922,143942,-1223.553601
10505.971,143943,-1223.300022
10506.005,143944,-1223.314230
10528.702,143945,-1223.242036
10529.128,143946,-1223.181021
10534.978,143947,-1223.332693
10535.026,143948,-1223.274058
10535.066,143949,-1223.476648
10561.214,143950,-1223.648081
10561.268,143951,-1223.807109
10561.332,143952,-1224.111246
10561.381,143953,-1224.075762
10585.771,143954,-1224.312393
10610.886,143955,-1224.336049
10610.953,143956,-1224.354368
10610.990,143957,-1224.521041
10611.024,143958,-1224.414157
10636.891,143959,-1224.547077
10661.896,143960,-1224.496880
10661.948,143961,-1224.408387
10661.983,143962,-1224.510223
10662.016,143963,-1224.332731
10687.882,143964,-1224.438894
10703.988,143965,-1224.350978
10704.097,143966,-1224.288809
10704.181,143967,-1224.402978
10704.290,143968,-1224.171467
10711.812,143969,-1224.248277
10711.862,143970,-1224.186685
10711.896,143971,-1224.189642
10711.929,143972,-1224.129709
10711.962,143973,-1223.960944
10719.883,143974,-1224.142763
10719.929,143975,-1224.155024
10719.962,143976,-1224.260610
10750.936,143977,-1224.485341
10750.991,143978,-1224.440481
10751.031,143979,-1224.643792
10751.066,143980,-1224.652879
10779.799,143981,-1224.637445
10800.911,143982,-1224.779020
10800.965,143983,-1224.624896
10828.156,143984,-1224.790704
10828.218,143985,-1224.741517
10828.258,143986,-1224.541812
10852.767,143987,-1223.924956
10852.819,143988,-1220.932773
10878.711,143989,-1218.703061
10878.762,143990,-1222.232477
10878.797,143991,-1225.319283
10881.746,143992,-1225.833510
10881.791,143993,-1225.282934
10886.866,143994,-1224.884894
10886.923,143995,-1224.629945
10891.897,143996,-1224.572319
10891.951,143997,-1224.617540
10891.988,143998,-1224.443654
10916.830,143999,-1224.556236
10916.880,144000,-1224.428942
10942.280,144001,-1224.372038
10942.685,144002,-1224.441779
10942.736,144003,-1224.254047
10969.346,144004,-1224.357830
10969.553,144005,-1224.243517
10994.173,144006,-1224.152860
10997.434,144007,-1224.217409
10997.815,144008,-1223.962098
11019.909,144009,-1223.973133
11019.966,144010,-1223.813744
11044.991,144011,-1223.662433
11045.055,144012,-1223.658610
11045.091,144013,-1223.401136
11070.068,144014,-1223.479460
11070.185,144015,-1223.371422
11076.480,144016,-1223.390823
11076.822,144017,-1223.561535
11077.021,144018,-1223.489197
11082.190,144019,-1223.784751
11082.716,144020,-1223.897045
11083.829,144021,-1223.921494
11083.879,144022,-1224.271139
11110.111,144023,-1224.330496
11110.215,144024,-1224.416681
11110.285,144025,-1224.600086
11136.453,144026,-1224.511304
11136.509,144027,-1224.730194
11159.815,144028,-1224.642999
11159.867,144029,-1224.674155
11159.904,144030,-1224.782626
11185.483,144031,-1224.649489
11186.231,144032,-1224.767697
11209.141,144033,-1224.667736
11209.263,144034,-1224.696152
11209.330,144035,-1224.749811
11236.230,144036,-1224.574483
11236.281,144037,-1224.731852
11259.826,144038,-1224.632685
11259.878,144039,-1224.619992
11259.930,144040,-1224.633334
11280.904,144041,-1224.436875
11281.956,144042,-1224.636724
11281.994,144043,-1224.516930
11282.028,144044,-1224.369585
11282.062,144045,-1224.416104
11283.714,144046,-1224.414445
11283.753,144047,-1224.688724
11308.808,144048,-1224.711081
11308.859,144049,-1224.820634
11308.894,144050,-1224.977354
11334.795,144051,-1224.939346
11334.846,144052,-1225.137897
11360.825,144053,-1225.029715
11360.874,144054,-1225.041903
11385.800,144055,-1225.186507
11385.890,144056,-1225.055967
11385.948,144057,-1225.218818
11409.796,144058,-1224.797267
11409.847,144059,-1223.251484
11435.808,144060,-1219.981201
11435.859,144061,-1220.365970
11435.894,144062,-1224.455915
11461.794,144063,-1225.848800
11461.846,144064,-1226.053121
11470.798,144065,-1225.694676
11470.846,144066,-1225.169198
11470.881,144067,-1225.199417
11478.651,144068,-1225.060511
11478.699,144069,-1225.050197
11479.450,144070,-1225.109193
11479.494,144071,-1224.952833
11481.688,144072,-1225.070391
11507.866,144073,-1224.931269
11507.917,144074,-1224.903646
11531.780,144075,-1224.910858
11531.830,144076,-1224.742743
11531.866,144077,-1224.859652
11558.795,144078,-1224.689661
11558.845,144079,-1224.637012
11584.274,144080,-1224.622732
11584.322,144081,-1224.415743
11584.357,144082,-1224.453102
11584.390,144083,-1224.226640
11584.423,144084,-1224.140527
11609.823,144085,-1224.094658
11609.879,144086,-1223.924090
11635.784,144087,-1224.060039
11635.833,144088,-1223.948756
11635.870,144089,-1224.057155
11661.860,144090,-1224.244599
11661.916,144091,-1224.274890
11666.726,144092,-1224.634993
11666.761,144093,-1224.739642
11666.795,144094,-1224.955862
11695.480,144095,-1225.088061
11695.546,144096,-1225.009088
11695.583,144097,-1225.262740
11720.809,144098,-1225.186291
11720.864,144099,-1225.207855
11745.226,144100,-1225.319572
11745.307,144101,-1225.179367
11745.362,144102,-1225.370778
11745.428,144103,-1225.238074
11771.797,144104,-1225.264975
11796.692,144105,-1225.315028
11796.747,144106,-1225.160399
11820.809,144107,-1225.304642
11820.861,144108,-1225.193287
11820.899,144109,-1225.227328
11847.815,144110,-1225.231655
11847.865,144111,-1225.123978
11853.011,144112,-1225.217952
11853.070,144113,-1225.032239
11853.129,144114,-1225.152826
11853.185,144115,-1225.134291
11853.244,144116,-1224.970503
11855.786,144117,-1224.934298
11855.829,144118,-1225.010530
11881.457,144119,-1224.950165
11881.520,144120,-1225.263749
11881.562,144121,-1225.243123
11905.793,144122,-1225.397174
11905.844,144123,-1225.546971
11930.781,144124,-1225.448381
11930.831,144125,-1225.626449
11930.866,144126,-1225.542788
11958.815,144127,-1225.583176
11958.866,144128,-1225.651764
11982.842,144129,-1225.525984
11982.907,144130,-1225.525335
11982.943,144131,-1224.598932
12009.857,144132,-1221.846338
12009.908,144133,-1220.149388
12027.598,144134,-1223.709889
12029.999,144135,-1226.213014
12030.788,144136,-1226.376370
12032.721,144137,-1226.514627
12032.756,144138,-1225.921787
12035.705,144139,-1225.532691
12035.743,144140,-1225.572718
12037.773,144141,-1225.439510
12037.836,144142,-1225.443332
12046.858,144143,-1225.434678
12071.873,144144,-1225.254301
12071.922,144145,-1225.334140
12096.817,144146,-1225.292382
12096.870,144147,-1225.281780
12096.906,144148,-1225.278895
12122.822,144149,-1225.086979
12122.894,144150,-1225.189176
12147.834,144151,-1224.962569
12147.883,144152,-1224.933793
12149.786,144153,-1224.678771
12200.738,144154,-1224.513684
12200.820,144155,-1224.575493
12200.856,144156,-1224.365835
12200.891,144157,-1224.360210
12215.907,144158,-1224.281958
12221.809,144159,-1224.098048
12221.844,144160,-1224.308643
12221.877,144161,-1224.158990
12221.911,144162,-1224.273664
12229.918,144163,-1224.428509
12229.961,144164,-1224.463127
12229.996,144165,-1224.872562
12237.792,144166,-1224.952184
12237.839,144167,-1225.227184
12263.607,144168,-1225.279544
12263.669,144169,-1225.296637
12263.704,144170,-1225.474345
12286.867,144171,-1225.396020
12286.919,144172,-1225.515742
12311.883,144173,-1225.470811
12311.936,144174,-1225.332698
12311.970,144175,-1225.507520
12338.069,144176,-1225.444558
12338.125,144177,-1225.481124
12362.237,144178,-1225.452708
12362.311,144179,-1225.368182
12362.347,144180,-1225.477374
12389.359,144181,-1225.290434
12390.279,144182,-1225.326639
12405.845,144183,-1225.343588
12405.900,144184,-1225.235910
12406.925,144185,-1225.418955
12412.937,144186,-1225.415133
12415.402,144187,-1225.414772
12417.146,144188,-1225.422056
12417.245,144189,-1225.245358
12421.775,144190,-1225.326495
12445.847,144191,-1225.243483
12445.899,144192,-1225.084239
12452.086,144193,-1225.149220
12452.131,144194,-1224.945116
12465.852,144195,-1225.146119
12478.958,144196,-1225.282790
12479.032,144197,-1225.378206
12494.063,144198,-1225.521440
12494.121,144199,-1225.517113
12517.819,144200,-1225.555914
12517.869,144201,-1225.551947
12517.903,144202,-1225.633805
12534.070,144203,-1225.493601
12534.361,144204,-1225.585195
12555.862,144205,-1225.663447
12555.944,144206,-1225.571709
12555.983,144207,-1225.136887
12580.749,144208,-1222.811542
12580.795,144209,-1219.547028
12586.767,144210,-1220.137633
12600.774,144211,-1224.173126
12600.840,144212,-1226.509578
12615.273,144213,-1226.719308
12615.324,144214,-1226.197003
12628.411,144215,-1225.702249
12628.453,144216,-1225.648663
12636.805,144217,-1225.611087
12655.804,144218,-1225.528796
12655.856,144219,-1225.370201
12669.807,144220,-1225.493745
12669.857,144221,-1225.371355
12693.833,144222,-1225.356931
12693.882,144223,-1225.358806
12693.917,144224,-1225.220981
12707.848,144225,-1225.345752
12707.897,144226,-1225.231439
12731.776,144227,-1225.113232
12731.822,144228,-1225.036278
12731.856,144229,-1224.881505
12746.827,144230,-1224.884606
12746.879,144231,-1224.715192
12772.794,144232,-1224.615448
12772.844,144233,-1224.516569
12772.879,144234,-1224.327611
12786.747,144235,-1224.346723
12786.792,144236,-1224.212216
12810.807,144237,-1224.209475
12810.859,144238,-1224.265875
12810.895,144239,-1224.265730
12835.816,144240,-1224.642782
12835.864,144241,-1224.828279
12842.270,144242,-1224.924633
12842.352,144243,-1225.099024
12855.874,144244,-1225.163645
12877.842,144245,-1225.280842
12877.963,144246,-1225.499659
12882.185,144247,-1225.418739
12882.236,144248,-1225.447227
12895.774,144249,-1225.661356
12909.832,144250,-1225.745666
12909.880,144251,-1225.638565
12924.806,144252,-1225.613179
12924.860,144253,-1225.730665
12947.791,144254,-1225.519421
12947.841,144255,-1225.543798
12947.877,144256,-1225.635681
12962.573,144257,-1225.609212
12962.641,144258,-1225.673184
12986.791,144259,-1225.566804
12986.840,144260,-1225.607048
12986.876,144261,-1225.496991
13001.805,144262,-1225.538389
13001.856,144263,-1225.496702
13025.928,144264,-1225.425879
13025.994,144265,-1225.673112
13028.169,144266,-1225.818437
13041.815,144267,-1225.779131
13066.020,144268,-1225.785117
13066.084,144269,-1225.729078
13066.123,144270,-1225.684651
13066.176,144271,-1225.627098
13090.786,144272,-1225.741988
13090.833,144273,-1225.800479
13096.755,144274,-1225.670083
13096.792,144275,-1225.771846
13110.824,144276,-1225.846059
13125.540,144277,-1225.937365
13125.600,144278,-1226.033143
13138.829,144279,-1225.985903
13138.879,144280,-1226.033359
13161.824,144281,-1226.018646
13161.875,144282,-1225.959290
13161.910,144283,-1226.181209
13180.707,144284,-1226.035451
13180.762,144285,-1226.019584
13222.301,144286,-1225.386284
13222.440,144287,-1222.711870
13222.511,144288,-1220.452299
13222.587,144289,-1223.731165
13222.665,144290,-1226.705893
13231.804,144291,-1227.143383
13231.852,144292,-1226.837011
13245.789,144293,-1226.290329
13259.865,144294,-1225.996145
13259.931,144295,-1225.957704
13272.799,144296,-1225.929576
13272.848,144297,-1225.870220
13281.861,144298,-1225.919623
13305.847,144299,-1225.744656
13305.900,144300,-1225.775885
13315.829,144301,-1225.692512
13315.878,144302,-1225.590244
13323.766,144303,-1225.665395
13337.806,144304,-1225.505501
13337.852,144305,-1225.503193
13361.126,144306,-1225.484081
13361.311,144307,-1225.283366
13361.375,144308,-1225.318345
13379.340,144309,-1225.126502
13379.391,144310,-1225.020123
13391.773,144311,-1224.939923
13391.816,144312,-1224.740291
13418.185,144313,-1224.723919
13418.324,144314,-1224.603404
13418.391,144315,-1224.529623
13431.768,144316,-1224.504453
13431.823,144317,-1224.492048
13455.833,144318,-1224.736901
13455.884,144319,-1224.869965
13455.918,144320,-1224.955862
13481.791,144321,-1225.222712
13481.843,144322,-1225.324332
13486.819,144323,-1225.557212
13487.018,144324,-1225.533773
13515.814,144325,-1225.643614
13515.876,144326,-1225.744945
13515.910,144327,-1225.670011
13529.931,144328,-1225.832428
13529.977,144329,-1225.868417
13536.778,144330,-1225.824711
13561.819,144331,-1225.860556
13561.872,144332,-1225.784323
13566.762,144333,-1225.855724
13566.798,144334,-1225.793843
13580.774,144335,-1225.720640
13595.253,144336,-1225.797377
13595.354,144337,-1225.733045
13607.973,144338,-1225.821105
13608.044,144339,-1225.717539
13632.797,144340,-1225.735641
13632.847,144341,-1225.829183
13632.883,144342,-1225.699436
13648.129,144343,-1225.815119
13648.221,144344,-1225.786559
13671.843,144345,-1225.795214
13671.896,144346,-1225.912411
13671.931,144347,-1225.761677
13686.796,144348,-1225.914863
13686.844,144349,-1225.737300
13710.833,144350,-1225.784251
13710.884,144351,-1225.864162
13710.920,144352,-1225.583248
13735.816,144353,-1225.644191
13735.864,144354,-1225.602216
13744.794,144355,-1225.691647
13744.842,144356,-1225.898348
13752.961,144357,-1225.851901
13766.854,144358,-1226.065814
13766.904,144359,-1226.027445
13791.821,144360,-1226.052111
13791.872,144361,-1226.170318
13791.907,144362,-1226.042519
13815.886,144363,-1226.195561
13815.936,144364,-1226.105553
13824.784,144365,-1226.099278
13825.063,144366,-1225.938952
13846.824,144367,-1224.666871
13846.874,144368,-1221.681973
13846.910,144369,-1221.039946
13862.123,144370,-1224.959757
13862.179,144371,-1226.812850
13887.220,144372,-1226.859008
13887.274,144373,-1226.880644
13887.314,144374,-1226.296892
13901.815,144375,-1226.051822
13901.866,144376,-1226.008910
13926.959,144377,-1225.831419
13927.011,144378,-1225.935923
13927.051,144379,-1225.791824
13942.551,144380,-1225.801128
13942.714,144381,-1225.803147
13965.817,144382,-1225.670083
13965.867,144383,-1225.781871
13965.901,144384,-1225.574305
13981.730,144385,-1225.536513
13981.773,144386,-1225.510550
14006.390,144387,-1225.326567
14006.437,144388,-1225.365946
14006.470,144389,-1225.119434
14031.125,144390,-1225.043418
14031.177,144391,-1224.947640
14037.703,144392,-1224.695359
14037.744,144393,-1224.719592
14050.720,144394,-1224.513540
14065.901,144395,-1224.508997
14065.947,144396,-1224.562799
14078.086,144397,-1224.465363
14078.181,144398,-1224.757960
14101.936,144399,-1224.747575
14101.977,144400,-1224.821644
14102.010,144401,-1225.155783
14116.959,144402,-1225.242618
14117.008,144403,-1225.433884
14141.917,144404,-1225.624285
14141.964,144405,-1225.552236
14141.997,144406,-1225.754104
14157.065,144407,-1225.668280
14157.104,144408,-1225.793122
14180.863,144409,-1225.834015
14180.911,144410,-1225.750210
14180.946,144411,-1225.864450
14206.972,144412,-1225.748623
14207.022,144413,-1225.748190
14215.055,144414,-1225.716962
14215.101,144415,-1225.620751
14223.198,144416,-1225.791103
14238.166,144417,-1225.645633
14238.280,144418,-1225.642027
14261.008,144419,-1225.709966
14261.055,144420,-1225.577334
14261.087,144421,-1225.669073
14278.768,144422,-1225.558294
14279.614,144423,-1225.603082
14292.811,144424,-1225.515814
14292.859,144425,-1225.272260
14305.808,144426,-1225.438572
14320.073,144427,-1225.385274
14320.112,144428,-1225.554400
14333.809,144429,-1225.719630
14333.857,144430,-1225.729006
14346.810,144431,-1226.027662
14346.860,144432,-1225.885726
14360.722,144433,-1225.923807
14377.544,144434,-1225.981504
14377.604,144435,-1225.933904
14390.256,144436,-1226.110025
14390.308,144437,-1226.006242
14396.737,144438,-1226.063578
14429.830,144439,-1225.572430
14429.884,144440,-1223.595576
14429.919,144441,-1220.763648
14429.951,144442,-1222.305897
14438.489,144443,-1226.031845
14460.898,144444,-1226.781405
14460.948,144445,-1226.867662
14466.830,144446,-1226.882808
14466.869,144447,-1226.301724
14481.766,144448,-1226.110457
14495.842,144449,-1226.044466
14495.893,144450,-1225.899069
14507.915,144451,-1226.129137
14507.954,144452,-1225.936428
14534.140,144453,-1225.949265
14534.192,144454,-1226.010497
14534.231,144455,-1225.741699
14547.876,144456,-1225.881976
14547.925,144457,-1225.711625
14571.845,144458,-1225.729295
14571.893,144459,-1225.709173
14571.929,144460,-1225.515310
14587.728,144461,-1225.587720
14587.767,144462,-1225.494683
14610.845,144463,-1225.438789
14610.929,144464,-1225.334933
14610.964,144465,-1225.071906
14635.746,144466,-1225.162779
14635.793,144467,-1224.900040
14641.692,144468,-1224.974830
14641.726,144469,-1225.072266
14655.976,144470,-1225.049692
14669.826,144471,-1225.380226
14669.877,144472,-1225.402223
14684.088,144473,-1225.836684
14684.130,144474,-1225.935058
14691.723,144475,-1226.046558
14709.822,144476,-1226.268548
14709.929,144477,-1226.228016
14722.754,144478,-1226.375144
14722.790,144479,-1226.381563
14732.766,144480,-1226.334756
14755.753,144481,-1226.545639
14755.792,144482,-1226.398439
14761.764,144483,-1226.454477
14761.799,144484,-1226.459814
14786.849,144485,-1226.314562
14786.904,144486,-1226.497318
14786.938,144487,-1226.279799
14801.833,144488,-1226.297397
14801.882,144489,-1226.284054
14827.983,144490,-1226.215683
14828.225,144491,-1226.297685
14828.264,144492,-1226.241358
14850.987,144493,-1226.267178
14851.034,144494,-1226.201475
14860.055,144495,-1226.056655
14869.039,144496,-1226.126324
14869.095,144497,-1226.170102
14882.783,144498,-1225.933399
14882.828,144499,-1226.010569
14905.810,144500,-1225.918830
14905.856,144501,-1226.093869
14905.888,144502,-1226.229891
14930.760,144503,-1226.214817
14930.808,144504,-1226.529628
14940.159,144505,-1226.458949
14940.311,144506,-1226.572829
14947.909,144507,-1226.582205
14962.914,144508,-1226.529556
14962.954,144509,-1226.660745
14985.914,144510,-1226.494793
14985.967,144511,-1226.577445
14986.002,144512,-1226.438539
15011.108,144513,-1225.612746
15011.158,144514,-1222.764663
15019.988,144515,-1220.281082
15020.026,144516,-1224.043956
15034.251,144517,-1227.270606
15034.996,144518,-1227.605683
15043.002,144519,-1227.447520
15065.808,144520,-1226.679858
15065.856,144521,-1226.514338
15072.970,144522,-1226.463637
15073.097,144523,-1226.290329
15088.283,144524,-1226.447193
15099.818,144525,-1226.163972
15099.868,144526,-1226.345069
15113.804,144527,-1226.332087
15113.861,144528,-1226.162529
15121.692,144529,-1226.265230
15145.753,144530,-1226.007179
15145.795,144531,-1226.079950
15151.778,144532,-1225.929793
15151.823,144533,-1225.803436
15166.838,144534,-1225.940611
15180.517,144535,-1225.674121
15180.562,144536,-1225.629334
15192.777,144537,-1225.482927
15192.820,144538,-1225.254662
15216.960,144539,-1225.250984
15217.011,144540,-1224.978797
15217.046,144541,-1225.055895
15233.609,144542,-1224.970575
15233.895,144543,-1224.903069
15256.946,144544,-1225.106380
15257.070,144545,-1225.302046
15257.148,144546,-1225.618516
15271.918,144547,-1225.793411
15271.967,144548,-1225.873394
15295.846,144549,-1226.139450
15295.895,144550,-1226.051967
15295.929,144551,-1226.262995
15320.916,144552,-1226.249291
15329.910,144553,-1226.283044
15329.956,144554,-1226.396275
15329.992,144555,-1226.256287
15337.770,144556,-1226.322639
15360.886,144557,-1226.419282
15360.927,144558,-1226.396780
15370.186,144559,-1226.474960
15370.235,144560,-1226.257730
15379.770,144561,-1226.345862
15391.808,144562,-1226.253763
15391.860,144563,-1226.125891
15416.082,144564,-1226.224337
15416.131,144565,-1226.134185
15416.163,144566,-1226.121420
15435.896,144567,-1226.033936
15435.957,144568,-1226.084421
15450.892,144569,-1226.058097
15450.945,144570,-1225.804589
15473.994,144571,-1225.937293
15474.044,144572,-1225.942991
15474.079,144573,-1226.003285
15487.817,144574,-1226.249075
15487.867,144575,-1226.276409
15501.941,144576,-1226.446688
15501.994,144577,-1226.473950
15515.925,144578,-1226.367643
15532.208,144579,-1226.596990
15532.270,144580,-1226.528907
15544.490,144581,-1226.621078
15544.540,144582,-1226.564030
15551.745,144583,-1226.452314
15569.811,144584,-1225.973570
15569.862,144585,-1223.500159
15583.802,144586,-1220.090393
15583.851,144587,-1222.108284
15591.745,144588,-1226.136998
15616.003,144589,-1227.130978
15616.112,144590,-1227.334001
15621.824,144591,-1227.043134
15621.874,144592,-1226.666299
15636.810,144593,-1226.345141
15649.813,144594,-1226.423393
15649.862,144595,-1226.310234
15662.825,144596,-1226.328048
15662.880,144597,-1226.389929
15686.788,144598,-1226.151062
15686.839,144599,-1226.270567
15686.874,144600,-1226.130219
15701.917,144601,-1226.057592
15701.996,144602,-1226.121059
15729.111,144603,-1225.895318
15730.003,144604,-1225.943063
15730.040,144605,-1225.745810
15743.142,144606,-1225.591975
15743.222,144607,-1225.709173
15765.827,144608,-1225.450112
15765.878,144609,-1225.465618
15781.768,144610,-1225.200571
15781.824,144611,-1225.036278
15781.860,144612,-1225.035268
15797.839,144613,-1224.819985
15797.925,144614,-1225.009665
15812.846,144615,-1224.965526
15826.976,144616,-1225.047745
15827.031,144617,-1225.351521
15837.789,144618,-1225.402511
15837.837,144619,-1225.727419
15847.862,144620,-1225.820817
15870.816,144621,-1225.907651
15870.867,144622,-1226.099062
15876.719,144623,-1226.005520
15876.836,144624,-1226.172770
15890.800,144625,-1226.180776
15904.832,144626,-1226.174646
15904.884,144627,-1226.285136
15917.797,144628,-1226.122718
15917.848,144629,-1226.290906
15941.803,144630,-1226.159572
15941.853,144631,-1226.121131
15941.889,144632,-1226.178901
15956.763,144633,-1226.025787
15956.806,144634,-1226.154235
15981.773,144635,-1226.009415
15981.844,144636,-1225.978763
15981.886,144637,-1226.064299
16005.856,144638,-1225.912411
16005.937,144639,-1226.091129
16012.801,144640,-1226.007684
16012.850,144641,-1225.995063
16026.108,144642,-1226.088316
16041.001,144643,-1225.832212
16041.094,144644,-1226.007540
16052.796,144645,-1225.968161
16052.851,144646,-1225.785694
16061.832,144647,-1225.799252
16086.787,144648,-1225.709245
16086.837,144649,-1225.966575
16092.733,144650,-1226.030042
16092.773,144651,-1226.119761
16106.720,144652,-1226.287083
16119.847,144653,-1226.246190
16119.899,144654,-1226.435509
16132.897,144655,-1226.292132
16132.946,144656,-1226.295233
16156.962,144657,-1226.413440
16157.020,144658,-1226.220371
16157.055,144659,-1226.448131
16171.895,144660,-1226.163972
16171.944,144661,-1225.600846
16197.026,144662,-1222.986581
16197.120,144663,-1220.106476
16197.177,144664,-1223.649090
16211.924,144665,-1226.733444
16236.760,144666,-1227.244498
16237.017,144667,-1227.176054
16237.091,144668,-1226.473662
16237.155,144669,-1226.428658
16261.909,144670,-1226.271866
16261.970,144671,-1226.148538
16266.820,144672,-1226.245036
16266.894,144673,-1226.150485
16281.776,144674,-1226.215466
16294.811,144675,-1226.067906
16294.860,144676,-1226.171761
16307.828,144677,-1226.129209
16307.911,144678,-1225.979268
16317.872,144679,-1226.051895
16340.837,144680,-1225.841876
16340.889,144681,-1225.757350
16346.775,144682,-1225.764562
16346.823,144683,-1225.673977
16361.808,144684,-1225.620968
16374.837,144685,-1225.584330
16374.909,144686,-1225.374384
16387.803,144687,-1225.405108
16387.852,144688,-1225.167179
16401.814,144689,-1225.109048
16401.860,144690,-1225.135589
16416.851,144691,-1225.029931
16429.939,144692,-1225.170208
16429.986,144693,-1225.112510
16442.811,144694,-1225.431432
16442.864,144695,-1225.654937
16456.095,144696,-1225.778842
16469.909,144697,-1226.106274
16469.958,144698,-1226.124882
16485.886,144699,-1226.282179
16485.943,144700,-1226.300137
16492.970,144701,-1226.299200
16506.835,144702,-1226.461257
16506.887,144703,-1226.337352
16531.662,144704,-1226.310378
16531.713,144705,-1226.452025
16531.752,144706,-1226.282035
16546.965,144707,-1226.428297
16547.033,144708,-1226.333602
16570.835,144709,-1226.456136
16570.886,144710,-1226.476475
16570.922,144711,-1226.288237
16595.841,144712,-1226.465584
16595.923,144713,-1226.307133
16602.209,144714,-1226.341679
16602.302,144715,-1226.397213
16629.941,144716,-1226.151134
16630.314,144717,-1226.468685
16630.416,144718,-1226.308575
16641.834,144719,-1226.283910
16641.885,144720,-1226.268332
16666.846,144721,-1226.229746
16666.930,144722,-1226.332303
16683.747,144723,-1226.007828
16683.826,144724,-1226.104976
16683.869,144725,-1226.193614
16715.808,144726,-1226.246046
16715.952,144727,-1226.592735
16715.988,144728,-1226.492486
16722.919,144729,-1226.572324
16722.980,144730,-1226.794531
16738.804,144731,-1226.639614
16738.897,144732,-1226.792728
16750.945,144733,-1226.679858
16765.821,144734,-1226.729261
16765.870,144735,-1226.769144
16780.385,144736,-1226.664568
16780.436,144737,-1226.286290
16787.347,144738,-1224.215101
16810.917,144739,-1221.247440
16810.969,144740,-1223.222996
16816.885,144741,-1226.828861
16816.936,144742,-1227.550943
16841.817,144743,-1227.604817
16841.867,144744,-1227.338617
16841.902,144745,-1227.066934
16857.469,144746,-1226.708201
16857.524,144747,-1226.770803
16874.989,144748,-1226.666154
16875.039,144749,-1226.658798
16882.774,144750,-1226.552924
16896.892,144751,-1226.495731
16896.948,144752,-1226.558405
16920.945,144753,-1226.387621
16920.986,144754,-1226.510444
16921.018,144755,-1226.465584
16945.812,144756,-1226.295161
16945.862,144757,-1226.403992
16951.780,144758,-1226.139667
16951.826,144759,-1226.113198
16966.920,144760,-1225.912483
16980.917,144761,-1225.767447
16980.967,144762,-1225.908661
16992.817,144763,-1225.597961
16992.867,144764,-1225.621184
17001.804,144765,-1225.564280
17025.942,144766,-1225.456819
17026.114,144767,-1225.641090
17032.776,144768,-1225.524181
17032.822,144769,-1225.625584
17046.535,144770,-1226.029753
17059.826,144771,-1226.183084
17059.878,144772,-1226.434067
17074.164,144773,-1226.455704
17074.281,144774,-1226.618843
17087.825,144775,-1226.727025
17087.876,144776,-1226.659087
17100.802,144777,-1226.846531
17115.398,144778,-1226.686421
17115.448,144779,-1226.616895
17140.728,144780,-1226.874442
17140.823,144781,-1226.637811
17140.862,144782,-1226.852012
17160.824,144783,-1226.876173
17160.896,144784,-1226.703225
17166.835,144785,-1226.863768
17166.883,144786,-1226.634349
17184.466,144787,-1226.657356
17195.854,144788,-1226.638099
17196.032,144789,-1226.654038
17207.827,144790,-1226.721688
17207.875,144791,-1226.616246
17216.846,144792,-1226.770154
17241.975,144793,-1226.651442
17242.038,144794,-1226.443082
17247.072,144795,-1226.587470
17247.165,144796,-1226.501717
17260.818,144797,-1226.307277
17272.805,144798,-1226.397862
17272.856,144799,-1226.369879
17290.178,144800,-1226.622088
17290.252,144801,-1226.629372
17312.715,144802,-1226.860522
17312.776,144803,-1226.945986
17312.813,144804,-1226.943462
17327.351,144805,-1227.125930
17327.441,144806,-1226.896655
17351.799,144807,-1227.204470
17351.849,144808,-1227.088859
17351.884,144809,-1226.934231
17377.945,144810,-1227.269236
17381.988,144811,-1226.957670
17382.513,144812,-1226.356320
17382.557,144813,-1223.414839
17396.796,144814,-1220.480138
17409.834,144815,-1223.745589
17409.901,144816,-1227.781876
17422.836,144817,-1228.367792
17422.891,144818,-1227.752955
17431.786,144819,-1227.155355
17455.814,144820,-1227.133647
17455.864,144821,-1226.896367
17462.808,144822,-1227.016738
17462.858,144823,-1226.962286
17477.772,144824,-1226.764528
17490.827,144825,-1226.855041
17490.878,144826,-1226.588768
17502.799,144827,-1226.805349
17502.849,144828,-1226.775924
17528.939,144829,-1226.717000
17528.994,144830,-1226.726015
17529.035,144831,-1226.510660
17542.777,144832,-1226.628435
17542.826,144833,-1226.460319
17566.803,144834,-1226.278645
17566.853,144835,-1226.359638
17566.888,144836,-1226.112044
17606.776,144837,-1226.105769
17606.842,144838,-1225.909022
17606.878,144839,-1225.756989
17606.914,144840,-1225.921354
17606.946,144841,-1225.710471
17622.773,144842,-1225.920777
17622.818,144843,-1225.975446
17645.817,144844,-1225.980350
17645.867,144845,-1226.406877
17645.902,144846,-1226.444092
17670.897,144847,-1226.756379
17670.946,144848,-1226.881438
17679.599,144849,-1226.865210
17680.489,144850,-1227.126146
17690.752,144851,-1227.015007
17704.859,144852,-1227.145258
17704.909,144853,-1227.171583
17716.890,144854,-1227.112804
17716.939,144855,-1227.258994
17730.805,144856,-1227.166751
17744.785,144857,-1227.277746
17744.835,144858,-1227.169924
17758.889,144859,-1227.115112
17758.940,144860,-1227.200504
17772.896,144861,-1227.040105
17772.948,144862,-1227.188964
17786.854,144863,-1227.124776
17800.966,144864,-1227.170790
17801.085,144865,-1227.127300
17813.874,144866,-1227.003972
17813.921,144867,-1227.163072
17821.850,144868,-1227.217236
17845.829,144869,-1227.108909
17845.881,144870,-1227.140715
17851.723,144871,-1227.192065
17851.759,144872,-1227.280054
17865.754,144873,-1227.178867
17881.449,144874,-1227.127805
17881.521,144875,-1227.171799
17892.756,144876,-1227.044216
17892.799,144877,-1227.089004
17903.741,144878,-1227.147206
17916.831,144879,-1226.864200
17916.881,144880,-1227.036499
17941.046,144881,-1226.974835
17941.121,144882,-1227.120376
17941.158,144883,-1227.314312
17965.830,144884,-1227.305296
17965.879,144885,-1227.525412
17971.849,144886,-1227.632584
17971.918,144887,-1227.461584
17997.838,144888,-1227.681988
17997.932,144889,-1227.582027
17997.995,144890,-1227.722015
18011.789,144891,-1227.729804
18011.840,144892,-1227.649677
18046.853,144893,-1227.487259
18046.921,144894,-1226.039922
18046.975,144895,-1222.920301
18051.824,144896,-1223.144455
18051.877,144897,-1227.086624
18077.709,144898,-1229.069319
18077.780,144899,-1228.848699
18077.821,144900,-1228.223044
18102.873,144901,-1227.804234
18102.963,144902,-1227.734853
18129.452,144903,-1227.772789
18129.503,144904,-1227.639003
18130.696,144905,-1227.717111
18155.573,144906,-1227.641095
18155.640,144907,-1227.598182
18171.872,144908,-1227.636984
18171.919,144909,-1227.510050
18171.953,144910,-1227.625516
18171.985,144911,-1227.559814
18172.018,144912,-1227.443770
18197.794,144913,-1227.464252
18197.848,144914,-1227.312292
18197.884,144915,-1227.367898
18222.902,144916,-1227.220914
18222.952,144917,-1227.104654
18256.837,144918,-1227.099894
18256.887,144919,-1226.877543
18258.730,144920,-1226.948006
18258.765,144921,-1226.808378
18258.797,144922,-1226.777510
18282.798,144923,-1226.920023
18282.851,144924,-1226.868960
18284.739,144925,-1227.056116
18284.776,144926,-1227.094124
18309.881,144927,-1227.246734
18334.811,144928,-1227.492452
18334.861,144929,-1227.539331
18334.895,144930,-1227.798969
18334.929,144931,-1227.817576
18373.081,144932,-1227.869215
18375.859,144933,-1228.037764
18376.558,144934,-1227.929293
18376.600,144935,-1227.966652
18376.814,144936,-1227.959295
18401.839,144937,-1228.082191
18401.892,144938,-1228.027017
18401.927,144939,-1227.828683
18427.016,144940,-1227.987423
18427.070,144941,-1227.884649
18452.816,144942,-1227.850464
18452.867,144943,-1227.889409
18452.902,144944,-1227.747979
18481.456,144945,-1227.875274
18481.511,144946,-1227.836761
18486.696,144947,-1227.899651
18486.735,144948,-1227.949775
18486.769,144949,-1227.802575
18490.722,144950,-1227.949487
18515.804,144951,-1227.857892
18515.867,144952,-1227.933548
18515.903,144953,-1227.984826
18540.807,144954,-1227.755624
18564.783,144955,-1227.698503
18564.834,144956,-1227.687325
18564.869,144957,-1227.535869
18564.903,144958,-1227.476946
18581.918,144959,-1227.300608
18587.779,144960,-1227.615419
18587.826,144961,-1227.722015
18589.715,144962,-1227.844622
18589.752,144963,-1227.982302
18614.866,144964,-1227.895756
18614.924,144965,-1228.064521
18614.959,144966,-1227.953958
18641.804,144967,-1227.982302
18641.852,144968,-1228.062718
18665.851,144969,-1227.936938
18665.902,144970,-1227.980066
18665.936,144971,-1228.043822
18687.788,144972,-1227.551952
18687.839,144973,-1226.093725
18713.932,144974,-1223.028700
18713.984,144975,-1223.962242
18714.017,144976,-1227.751946
18737.844,144977,-1228.441068
18737.896,144978,-1228.866225
18766.844,144979,-1228.517949
18766.893,144980,-1228.077214
18766.926,144981,-1227.890347
18779.171,144982,-1227.679463
18779.264,144983,-1227.800123
18781.740,144984,-1227.650543
18781.791,144985,-1227.627896
18806.245,144986,-1227.609794
18831.797,144987,-1227.455886
18831.845,144988,-1227.564429
18831.880,144989,-1227.376120
18831.915,144990,-1227.351671
18861.991,144991,-1227.363138
18887.137,144992,-1227.173891
18887.188,144993,-1227.239882
18887.222,144994,-1227.032532
18887.255,144995,-1226.939207
18913.018,144996,-1226.863768
18938.523,144997,-1226.641561
18938.613,144998,-1226.658437
18938.690,144999,-1226.434572
18938.766,145000,-1226.448708
18968.074,145001,-1226.459021
18979.890,145002,-1226.467315
18979.936,145003,-1226.658870
18979.973,145004,-1226.641633
18980.017,145005,-1226.797416
19005.990,145006,-1227.001159
19006.039,145007,-1227.062607
19006.070,145008,-1227.332991
19006.101,145009,-1227.343232
19006.132,145010,-1227.460863
19031.858,145011,-1227.548707
19031.909,145012,-1227.469301
19068.019,145013,-1227.609505
19069.915,145014,-1227.523176
19069.954,145015,-1227.567675
19095.986,145016,-1227.594216
19096.038,145017,-1227.419825
19096.072,145018,-1227.538970
19120.828,145019,-1227.393501
19120.879,145020,-1227.435187
19146.259,145021,-1227.412541
19146.376,145022,-1227.336525
19146.413,145023,-1227.538970
19165.277,145024,-1227.346622
19165.318,145025,-1227.421701
19170.790,145026,-1227.427903
19170.837,145027,-1227.344675
19170.876,145028,-1227.443409
19170.914,145029,-1227.362489
19197.868,145030,-1227.367537
19197.929,145031,-1227.316259
19197.965,145032,-1227.240243
19223.912,145033,-1227.366816
19223.959,145034,-1227.069603
19223.990,145035,-1227.065276
19249.148,145036,-1227.130978
19249.197,145037,-1227.115400
19253.087,145038,-1227.375903
19253.124,145039,-1227.386145
19253.156,145040,-1227.518776
19259.949,145041,-1227.586210
19259.987,145042,-1227.535941
19260.019,145043,-1227.661794
19260.050,145044,-1227.555775
19285.885,145045,-1227.600130
19285.933,145046,-1227.577700
19285.967,145047,-1227.526565
19311.913,145048,-1227.413912
19311.964,145049,-1226.262922
19336.802,145050,-1223.428615
19336.851,145051,-1222.571305
19336.885,145052,-1226.400603
19357.923,145053,-1228.459459
19358.104,145054,-1228.498549
19360.279,145055,-1228.171766
19364.795,145056,-1227.634820
19364.841,145057,-1227.256686
19364.875,145058,-1227.311643
19364.908,145059,-1227.171006
19390.820,145060,-1227.194301
19390.871,145061,-1227.136315
19390.906,145062,-1227.018469
19415.920,145063,-1227.102635
19415.969,145064,-1227.006424
19441.818,145065,-1226.839968
19441.868,145066,-1226.923340
19441.902,145067,-1226.712817
19441.936,145068,-1226.713538
19441.968,145069,-1226.655120
19462.865,145070,-1226.461473
19462.916,145071,-1226.462050
19492.867,145072,-1226.226501
19494.797,145073,-1226.150557
19494.831,145074,-1226.019945
19520.237,145075,-1225.804085
19520.284,145076,-1225.823918
19548.036,145077,-1225.677295
19550.009,145078,-1225.806320
19550.049,145079,-1225.782015
19554.884,145080,-1225.741916
19554.924,145081,-1225.965349
19554.957,145082,-1225.976239
19581.874,145083,-1226.216332
19581.920,145084,-1226.333457
19581.954,145085,-1226.378750
19581.987,145086,-1226.567636
19607.999,145087,-1226.505612
19632.899,145088,-1226.647547
19632.948,145089,-1226.667236
19632.982,145090,-1226.569295
19633.016,145091,-1226.694282
19660.887,145092,-1226.513184
19660.936,145093,-1226.585883
19660.969,145094,-1226.507271
19666.866,145095,-1226.393823
19666.905,145096,-1226.488014
19691.870,145097,-1226.295954
19691.940,145098,-1226.368076
19691.976,145099,-1226.349036
19717.826,145100,-1226.247633
19717.872,145101,-1226.407743
19742.832,145102,-1226.250662
19742.884,145103,-1226.345862
19745.711,145104,-1226.324947
19760.811,145105,-1226.282179
19760.860,145106,-1226.412431
19766.693,145107,-1226.252321
19766.728,145108,-1226.193758
19766.761,145109,-1226.255927
19793.801,145110,-1226.186618
19793.858,145111,-1226.127334
19793.893,145112,-1225.884644
19793.927,145113,-1226.138152
19820.785,145114,-1226.163395
19820.827,145115,-1226.117958
19820.861,145116,-1226.403632
19845.811,145117,-1226.347016
19845.862,145118,-1226.540086
19864.811,145119,-1226.542826
19864.849,145120,-1226.455559
19864.881,145121,-1226.574632
19892.032,145122,-1226.426999
19892.091,145123,-1226.507775
19892.126,145124,-1226.506982
19892.160,145125,-1226.180776
19916.821,145126,-1225.234396
19943.793,145127,-1221.964185
19943.842,145128,-1221.550351
19943.876,145129,-1225.423932
19943.908,145130,-1227.507742
19956.078,145131,-1227.632873
19956.180,145132,-1226.836362
19956.243,145133,-1226.464502
19984.011,145134,-1226.265014
19984.174,145135,-1226.184670
19984.221,145136,-1226.279871
20007.973,145137,-1226.052399
20008.024,145138,-1226.099567
20008.059,145139,-1226.041293
20008.093,145140,-1225.965421
20041.358,145141,-1226.064660
20041.475,145142,-1225.855003
20041.512,145143,-1225.933399
20046.174,145144,-1225.803075
20046.422,145145,-1225.716673
20072.592,145146,-1225.761172
20072.643,145147,-1225.486172
20072.679,145148,-1225.564352
20080.028,145149,-1225.377774
20080.070,145150,-1225.279905
20104.838,145151,-1225.285746
20104.892,145152,-1225.086474
20104.961,145153,-1225.103279
20137.874,145154,-1225.024883
20137.923,145155,-1225.005193
20142.795,145156,-1225.148283
20142.842,145157,-1225.122535
20142.875,145158,-1225.221702
20169.841,145159,-1225.468503
20169.889,145160,-1225.544014
20169.923,145161,-1225.815552
20169.955,145162,-1225.886303
20195.924,145163,-1225.995928
20220.881,145164,-1226.179045
20221.437,145165,-1226.088244
20221.509,145166,-1226.234434
20221.546,145167,-1226.191378
20240.837,145168,-1226.146879
20245.795,145169,-1226.206740
20245.842,145170,-1226.041076
20245.879,145171,-1226.197508
20245.914,145172,-1226.100144
20272.824,145173,-1226.063146
20272.878,145174,-1226.159572
20272.913,145175,-1225.995423
20298.060,145176,-1226.111106
20298.230,145177,-1226.078868
20323.829,145178,-1226.022685
20323.884,145179,-1226.108294
20323.920,145180,-1225.986769
20324.131,145181,-1226.085431
20324.171,145182,-1226.088027
20344.810,145183,-1226.113559
20344.861,145184,-1226.105048
20347.712,145185,-1225.892938
20372.966,145186,-1226.107933
20373.020,145187,-1225.915513
20397.846,145188,-1225.697200
20397.897,145189,-1225.764706
20399.735,145190,-1225.708740
20425.168,145191,-1226.089181
20425.221,145192,-1226.125170
20452.846,145193,-1226.180271
20452.897,145194,-1226.361441
20454.717,145195,-1226.243882
20479.917,145196,-1226.374855
20480.779,145197,-1226.321774
20480.906,145198,-1226.265086
20480.947,145199,-1226.386467
20505.856,145200,-1226.201186
20505.912,145201,-1226.312037
20505.948,145202,-1225.874403
20534.693,145203,-1223.714360
20534.800,145204,-1222.801084
20560.905,145205,-1223.411377
20561.125,145206,-1226.674809
20561.198,145207,-1227.424225
20562.943,145208,-1227.186368
20562.994,145209,-1226.452674
20569.848,145210,-1226.204432
20569.902,145211,-1226.337424
20595.802,145212,-1226.186618
20620.440,145213,-1226.147744
20620.518,145214,-1226.185392
20620.579,145215,-1225.989942
20620.657,145216,-1226.049442
20646.807,145217,-1225.857527
20655.175,145218,-1225.872817
20655.226,145219,-1225.893155
20655.262,145220,-1225.614549
20655.297,145221,-1225.712202
20660.853,145222,-1225.788218
20662.699,145223,-1225.638277
20662.737,145224,-1225.617073
20688.970,145225,-1225.335150
20689.024,145226,-1225.376187
20692.359,145227,-1225.115323
20714.921,145228,-1224.975407
20714.974,145229,-1225.008655
20739.843,145230,-1224.891818
20739.893,145231,-1225.049692
20739.928,145232,-1225.080705
20739.962,145233,-1225.061520
20739.995,145234,-1225.201725
20779.761,145235,-1225.207855
20779.828,145236,-1225.520430
20779.865,145237,-1225.495909
20779.899,145238,-1225.728790
20779.933,145239,-1225.888395
20802.822,145240,-1225.913565
20802.910,145241,-1226.014391
20827.985,145242,-1225.993260
20829.769,145243,-1225.995928
20829.822,145244,-1226.020233
20854.854,145245,-1225.802642
20854.907,145246,-1226.018286
20877.849,145247,-1225.824495
20877.903,145248,-1225.857383
20877.944,145249,-1225.916017
20882.856,145250,-1225.735353
20882.900,145251,-1225.834376
20907.842,145252,-1225.822692
20907.893,145253,-1225.884500
20932.805,145254,-1225.848656
20934.739,145255,-1225.768745
20934.780,145256,-1225.823702
20960.793,145257,-1225.831491
20960.842,145258,-1225.778986
20980.556,145259,-1225.843968
20980.607,145260,-1225.591326
20980.649,145261,-1225.692296
21002.805,145262,-1225.851541
21002.856,145263,-1225.634238
21004.689,145264,-1225.592408
21004.724,145265,-1225.490572
21004.757,145266,-1225.486389
21031.159,145267,-1225.699725
21031.218,145268,-1225.705134
21054.920,145269,-1225.912628
21054.987,145270,-1225.927413
21055.022,145271,-1226.063506
21089.412,145272,-1226.098990
21089.463,145273,-1226.003717
21093.734,145274,-1226.129858
21093.772,145275,-1225.972993
21093.806,145276,-1226.017348
21120.865,145277,-1226.007972
21120.927,145278,-1225.534278
21144.804,145279,-1223.942121
21144.852,145280,-1221.062448
21144.887,145281,-1222.158481
21175.837,145282,-1225.912195
21175.911,145283,-1226.937909
21182.211,145284,-1227.001953
21182.314,145285,-1226.236310
21182.358,145286,-1225.898203
21205.795,145287,-1225.803580
21205.845,145288,-1225.674049
21205.880,145289,-1225.759658
21205.914,145290,-1225.615775
21232.762,145291,-1225.569617
21257.765,145292,-1225.573656
21257.850,145293,-1225.432226
21257.886,145294,-1225.513579
21257.921,145295,-1225.369191
21284.883,145296,-1225.330246
21284.937,145297,-1225.293536
21294.763,145298,-1225.109337
21319.818,145299,-1225.170063
21319.867,145300,-1225.011973
21344.869,145301,-1224.942592
21344.935,145302,-1224.842487
21344.998,145303,-1224.658433
21370.792,145304,-1224.653745
21370.844,145305,-1224.489596
21397.815,145306,-1224.551909
21397.865,145307,-1224.564170
21397.900,145308,-1224.450506
21404.790,145309,-1224.715409
21404.841,145310,-1224.649922
21404.876,145311,-1224.795824
21404.911,145312,-1225.000433
21430.763,145313,-1225.067795
21455.833,145314,-1225.325341
21455.887,145315,-1225.386500
21455.922,145316,-1225.498505
21455.957,145317,-1225.559304
21481.817,145318,-1225.471965
21481.943,145319,-1225.586277
21481.987,145320,-1225.557284
21491.892,145321,-1225.569761
21491.933,145322,-1225.609573
21516.820,145323,-1225.495404
21516.870,145324,-1225.618299
21516.905,145325,-1225.455521
21541.797,145326,-1225.546106
21541.851,145327,-1225.526416
21567.809,145328,-1225.411959
21567.860,145329,-1225.568103
21567.896,145330,-1225.476220
21586.829,145331,-1225.548341
21586.877,145332,-1225.565434
21586.912,145333,-1225.460064
21586.945,145334,-1225.633156
21594.701,145335,-1225.499010
21594.743,145336,-1225.443621
21594.776,145337,-1225.480619
21621.194,145338,-1225.395299
21621.249,145339,-1225.354839
21645.845,145340,-1225.157298
21645.895,145341,-1225.311999
21645.931,145342,-1225.377846
21671.811,145343,-1225.434245
21671.862,145344,-1225.650826
21686.783,145345,-1225.599836
21686.832,145346,-1225.677872
21686.866,145347,-1225.785838
21715.824,145348,-1225.663880
21740.783,145349,-1225.763120
21740.844,145350,-1225.776534
21740.880,145351,-1225.657317
21740.915,145352,-1225.806032
21766.929,145353,-1225.692512
21766.979,145354,-1225.276371
21791.880,145355,-1223.131762
21791.929,145356,-1220.209394
21791.964,145357,-1222.772813
21809.833,145358,-1225.820745
21809.892,145359,-1226.385385
21815.799,145360,-1226.573118
21815.846,145361,-1226.037037
21815.880,145362,-1225.743502
21841.806,145363,-1225.452347
21841.856,145364,-1225.514733
21841.891,145365,-1225.458622
21841.924,145366,-1225.360392
21867.857,145367,-1225.458406
21892.812,145368,-1225.263677
21892.861,145369,-1225.303921
21896.703,145370,-1225.231655
21896.739,145371,-1225.097870
21915.865,145372,-1225.191988
21920.842,145373,-1224.959108
21920.890,145374,-1224.978292
21924.873,145375,-1224.852223
21924.911,145376,-1224.707980
21951.462,145377,-1224.725361
21951.532,145378,-1224.523349
21951.570,145379,-1224.466373
21975.806,145380,-1224.330063
21975.860,145381,-1224.216760
22000.715,145382,-1224.316360
22000.770,145383,-1224.171828
22000.825,145384,-1224.299411
22024.952,145385,-1224.320038
22025.012,145386,-1224.317946
22031.790,145387,-1224.590133
22031.841,145388,-1224.599149
22056.882,145389,-1224.798493
22082.309,145390,-1224.883596
22082.378,145391,-1224.938625
22082.414,145392,-1225.078830
22082.448,145393,-1224.991130
22106.857,145394,-1225.119506
22125.998,145395,-1225.044860
22130.042,145396,-1224.955934
22130.094,145397,-1225.011179
22130.132,145398,-1224.803758
22151.909,145399,-1224.861239
22151.958,145400,-1224.814504
22151.993,145401,-1224.705023
22179.653,145402,-1224.774260
22179.702,145403,-1224.561645
22210.895,145404,-1224.623237
22210.944,145405,-1224.567343
22214.709,145406,-1224.527171
22214.744,145407,-1224.607659
22214.778,145408,-1224.453463
22239.813,145409,-1224.459954
22239.869,145410,-1224.291189
22239.904,145411,-1224.274818
22266.834,145412,-1224.337275
22266.882,145413,-1224.037321
22291.814,145414,-1224.022392
22291.870,145415,-1224.004650
22291.926,145416,-1224.039268
22312.825,145417,-1224.249503
22312.875,145418,-1224.179184
22317.720,145419,-1224.318091
22317.757,145420,-1224.299195
22319.700,145421,-1224.242796
22345.873,145422,-1224.312105
22345.927,145423,-1224.183656
22345.992,145424,-1224.224982
22346.056,145425,-1224.153942
22371.070,145426,-1224.121343
22371.142,145427,-1223.912118
22371.180,145428,-1222.397708
22397.863,145429,-1219.358863
22397.941,145430,-1219.435312
22397.998,145431,-1223.054808
22427.531,145432,-1224.635642
22427.991,145433,-1224.707331
22428.032,145434,-1224.413363
22428.071,145435,-1223.850887
22452.828,145436,-1223.587282
22452.880,145437,-1223.599182
22452.915,145438,-1223.390102
22478.862,145439,-1223.462728
22478.945,145440,-1223.319134
22480.911,145441,-1223.202153
22480.953,145442,-1223.243262
22480.993,145443,-1223.099019
22512.812,145444,-1222.976628
22512.863,145445,-1222.988456
22512.898,145446,-1222.788535
22512.932,145447,-1222.839164
22517.787,145448,-1222.656985
22519.759,145449,-1222.477330
22519.828,145450,-1222.536326
22544.805,145451,-1222.296810
22544.853,145452,-1222.291978
22544.888,145453,-1222.086287
22571.799,145454,-1221.979980
22571.851,145455,-1222.022531
22600.825,145456,-1221.862854
22600.875,145457,-1222.016617
22600.909,145458,-1222.008468
22600.942,145459,-1222.056428
22600.974,145460,-1222.302435
22604.733,145461,-1222.331717
22604.768,145462,-1222.611116
22629.952,145463,-1222.718144
22630.001,145464,-1222.855392
22630.037,145465,-1223.090869
22630.071,145466,-1223.091374
22630.105,145467,-1223.334640
22656.713,145468,-1223.311417
22656.765,145469,-1223.353897
22680.805,145470,-1223.494245
22680.856,145471,-1223.381303
22680.892,145472,-1223.510040
22709.807,145473,-1223.499654
22709.856,145474,-1223.508309
22716.818,145475,-1223.599182
22716.859,145476,-1223.503260
22716.892,145477,-1223.700297
22742.829,145478,-1223.686233
22742.878,145479,-1223.713134
22744.711,145480,-1223.871225
22769.871,145481,-1223.729506
22769.920,145482,-1223.927191
22794.816,145483,-1223.936279
22794.866,145484,-1223.790521
22794.903,145485,-1223.886154
22826.129,145486,-1223.894809
22826.975,145487,-1224.209115
22832.525,145488,-1224.353719
22832.574,145489,-1224.477624
22832.609,145490,-1224.700696
22832.647,145491,-1224.730194
22832.682,145492,-1224.990048
22855.740,145493,-1224.960478
22855.782,145494,-1225.042985
22855.816,145495,-1225.194945
22855.849,145496,-1225.145326
22855.883,145497,-1225.333852
22882.797,145498,-1225.241320
22882.851,145499,-1224.457862
22906.837,145500,-1221.702023
22906.888,145501,-1219.668193
22906.922,145502,-1223.654355
22915.841,145503,-1225.996505
22915.923,145504,-1226.209913
22915.958,145505,-1226.438178
22915.999,145506,-1225.872384
22921.772,145507,-1225.759586
22951.821,145508,-1225.559087
22951.871,145509,-1225.500308
22951.905,145510,-1225.583897
22951.939,145511,-1225.437563
22976.876,145512,-1225.537739
23002.254,145513,-1225.399554
23002.307,145514,-1225.339693
23002.342,145515,-1225.397968
23002.375,145516,-1225.222063
23029.194,145517,-1225.284737
23029.247,145518,-1225.152105
23029.304,145519,-1225.083373
23062.880,145520,-1225.054885
23062.940,145521,-1224.805272
23062.976,145522,-1224.834409
23063.009,145523,-1224.639104
23064.827,145524,-1224.515487
23090.800,145525,-1224.484187
23090.849,145526,-1224.283905
23114.827,145527,-1224.392304
23114.878,145528,-1224.298113
23114.913,145529,-1224.338717
23140.882,145530,-1224.476542
23140.941,145531,-1224.477552
23167.896,145532,-1224.817172
23167.946,145533,-1224.830082
23170.773,145534,-1224.925283
23195.806,145535,-1225.111573
23195.856,145536,-1225.044500
23219.831,145537,-1225.121453
23219.880,145538,-1225.214923
23219.915,145539,-1225.083301
23252.806,145540,-1225.216293
23252.857,145541,-1225.102197
23254.724,145542,-1225.089359
23254.759,145543,-1225.136599
23279.782,145544,-1224.961776
23279.831,145545,-1225.042264
23279.866,145546,-1224.903862
23305.818,145547,-1224.844362
23305.869,145548,-1224.869100
23330.817,145549,-1224.705600
23330.872,145550,-1224.767120
23330.907,145551,-1224.581695
23357.902,145552,-1224.621867
23357.954,145553,-1224.629440
23367.210,145554,-1224.332371
23367.264,145555,-1224.426273
23367.299,145556,-1224.385164
23392.814,145557,-1224.513684
23392.867,145558,-1224.667520
23394.712,145559,-1224.664779
23394.746,145560,-1224.858931
23419.838,145561,-1224.793516
23419.887,145562,-1224.846886
23419.922,145563,-1224.884822
23446.807,145564,-1224.733728
23446.852,145565,-1224.874148
23446.887,145566,-1224.788035
23462.848,145567,-1224.856046
23462.887,145568,-1224.736540
23464.982,145569,-1223.668058
23465.020,145570,-1220.700902
23489.930,145571,-1219.198537
23489.992,145572,-1223.182680
23490.028,145573,-1225.311999
23514.835,145574,-1225.422345
23514.883,145575,-1225.561828
23547.829,145576,-1224.948506
23557.457,145577,-1224.703509
23557.512,145578,-1224.617612
23557.547,145579,-1224.423821
23557.580,145580,-1224.555948
23557.621,145581,-1224.395910
23557.694,145582,-1224.370884
23557.786,145583,-1224.395405
23584.906,145584,-1224.266668
23584.965,145585,-1224.328332
23609.252,145586,-1224.142979
23609.389,145587,-1224.092061
23609.457,145588,-1224.030037
23635.788,145589,-1223.821173
23635.839,145590,-1223.884351
23635.881,145591,-1223.697628
23635.915,145592,-1223.629690
23662.796,145593,-1223.535859
23662.845,145594,-1223.358584
23662.879,145595,-1223.417364
23669.739,145596,-1223.191479
23669.771,145597,-1223.234319
23669.803,145598,-1223.300022
23695.845,145599,-1223.269875
23695.892,145600,-1223.498428
23720.963,145601,-1223.572353
23721.011,145602,-1223.810787
23721.044,145603,-1223.959358
23746.864,145604,-1223.997438
23746.908,145605,-1224.246546
23765.041,145606,-1224.236016
23765.088,145607,-1224.266019
23765.121,145608,-1224.265153
23765.153,145609,-1224.372470
23765.185,145610,-1224.481951
23790.903,145611,-1224.348887
23791.013,145612,-1224.390789
23791.086,145613,-1224.410983
23791.161,145614,-1224.281092
23817.105,145615,-1224.416176
23848.008,145616,-1224.227001
23848.058,145617,-1224.239983
23848.091,145618,-1224.179689
23848.123,145619,-1224.033138
23854.866,145620,-1224.163462
23854.899,145621,-1224.037105
23854.932,145622,-1223.955247
23881.840,145623,-1223.906853
23881.888,145624,-1223.820596
23881.923,145625,-1224.077349
23906.958,145626,-1224.110308
23907.005,145627,-1224.263855
23937.977,145628,-1224.386029
23938.033,145629,-1224.322851
23940.863,145630,-1224.579099
23944.837,145631,-1224.536475
23944.877,145632,-1224.448919
23944.912,145633,-1224.600447
23970.947,145634,-1224.543976
23970.999,145635,-1224.599221
23971.032,145636,-1224.690022
23971.063,145637,-1224.403771
23995.943,145638,-1223.312787
23995.992,145639,-1219.701874
24021.014,145640,-1219.023570
24021.062,145641,-1223.210230
24021.094,145642,-1225.053875
24049.933,145643,-1225.503914
24049.982,145644,-1225.139556
24054.837,145645,-1224.795969
24054.871,145646,-1224.546283
24054.904,145647,-1224.431394
24081.492,145648,-1224.596408
24081.554,145649,-1224.482167
24081.594,145650,-1224.506689
24081.640,145651,-1224.444520
24108.073,145652,-1224.329486
24126.139,145653,-1224.438678
24126.192,145654,-1224.243156
24126.230,145655,-1224.292199
24126.267,145656,-1224.243589
24134.820,145657,-1224.044750
24134.872,145658,-1224.079152
24134.913,145659,-1223.867691
24160.075,145660,-1223.895530
24160.136,145661,-1223.762177
24186.373,145662,-1223.567232
24186.422,145663,-1223.643970
24186.458,145664,-1223.407122
24211.845,145665,-1223.488331
24211.894,145666,-1223.487826
24236.254,145667,-1223.446645
24236.300,145668,-1223.675703
24236.335,145669,-1223.680752
24250.718,145670,-1223.929499
24250.760,145671,-1224.119468
24257.457,145672,-1224.178463
24257.499,145673,-1224.543182
24257.534,145674,-1224.496375
24283.774,145675,-1224.675886
24283.823,145676,-1224.774548
24308.994,145677,-1224.749666
24309.042,145678,-1224.909416
24309.074,145679,-1224.838592
24335.832,145680,-1224.930475
24335.881,145681,-1224.914825
24335.914,145682,-1224.833472
24335.945,145683,-1224.935812
24360.933,145684,-1224.729689
24360.979,145685,-1224.865926
24361.011,145686,-1224.845155
24366.874,145687,-1224.658360
24366.905,145688,-1224.794815
24366.936,145689,-1224.553496
24394.715,145690,-1224.743752
24394.768,145691,-1224.609895
24394.804,145692,-1224.424254
24394.840,145693,-1224.608813
24420.061,145694,-1224.514911
24420.109,145695,-1224.719664
24420.142,145696,-1224.822870
24444.947,145697,-1224.917349
24445.023,145698,-1225.130973
24470.937,145699,-1225.083806
24470.977,145700,-1225.231944
24471.009,145701,-1225.255455
24479.552,145702,-1225.179367
24479.588,145703,-1225.327577
24502.912,145704,-1225.203311
24502.959,145705,-1225.362123
24504.775,145706,-1225.007573
24529.758,145707,-1223.181959
24529.804,145708,-1219.597946
24554.914,145709,-1219.856214
24554.965,145710,-1224.215101
24555.000,145711,-1226.151567
24575.085,145712,-1226.171184
24575.134,145713,-1225.724895
24580.753,145714,-1225.228698
24580.881,145715,-1225.256898
24606.144,145716,-1225.202734
24606.279,145717,-1225.105947
24606.341,145718,-1225.190113
24631.057,145719,-1224.992572
24631.156,145720,-1225.098519
24657.375,145721,-1225.047889
24657.427,145722,-1224.939274
24657.463,145723,-1225.020772
24667.800,145724,-1224.845877
24667.851,145725,-1224.871047
24671.726,145726,-1224.886625
24671.762,145727,-1224.667880
24671.796,145728,-1224.676896
24696.830,145729,-1224.528109
24696.885,145730,-1224.356748
24721.906,145731,-1224.314917
24721.946,145732,-1224.082541
24721.980,145733,-1224.076050
24747.823,145734,-1223.990226
24747.874,145735,-1223.919835
24765.830,145736,-1224.094586
24765.883,145737,-1224.004362
24765.918,145738,-1224.264071
24771.725,145739,-1224.366989
24771.764,145740,-1224.515632
24798.208,145741,-1224.855325
24798.329,145742,-1224.865205
24798.366,145743,-1225.103351
24824.421,145744,-1225.159822
24825.187,145745,-1225.140205
24847.768,145746,-1225.312936
24849.716,145747,-1225.236271
24849.757,145748,-1225.385779
24866.868,145749,-1225.319427
24866.918,145750,-1225.313802
24871.838,145751,-1225.418955
24871.878,145752,-1225.256898
24896.819,145753,-1225.354695
24896.873,145754,-1225.257980
24896.908,145755,-1225.219899
24923.819,145756,-1225.303344
24923.869,145757,-1225.139123
24955.885,145758,-1225.243844
24955.948,145759,-1225.195883
24955.983,145760,-1225.131767
24962.793,145761,-1225.233386
24962.845,145762,-1225.168116
24962.881,145763,-1225.291660
24962.915,145764,-1225.282645
24988.793,145765,-1225.192782
24988.842,145766,-1225.240166
24988.878,145767,-1225.132704
25014.825,145768,-1225.226030
25014.878,145769,-1225.082796
25039.817,145770,-1225.044067
25039.866,145771,-1225.194513
25039.901,145772,-1225.198335
25056.840,145773,-1225.463166
25056.892,145774,-1225.468647
25063.522,145775,-1225.537595
25063.583,145776,-1225.696984
25063.629,145777,-1225.585340
25090.825,145778,-1225.725616
25090.877,145779,-1225.628180
25114.825,145780,-1225.659337
25114.875,145781,-1225.754176
25114.911,145782,-1225.656812
25139.910,145783,-1225.516247
25139.966,145784,-1224.124733
25171.001,145785,-1220.419267
25171.096,145786,-1220.034282
25171.164,145787,-1224.170097
25195.843,145788,-1226.937909
25195.920,145789,-1226.767630
25222.351,145790,-1226.065381
25222.407,145791,-1225.712202
25222.443,145792,-1225.508458
25247.150,145793,-1225.641234
25247.202,145794,-1225.519493
25263.865,145795,-1225.456819
25263.947,145796,-1225.498650
25264.011,145797,-1225.337241
25289.803,145798,-1225.470017
25289.855,145799,-1225.311999
25289.889,145800,-1225.287405
25289.923,145801,-1225.257980
25315.850,145802,-1225.088999
25315.931,145803,-1225.169126
25341.768,145804,-1225.057265
25341.831,145805,-1224.916123
25341.868,145806,-1224.847175
25341.902,145807,-1224.540658
25341.936,145808,-1224.593884
25341.970,145809,-1224.328404
25378.698,145810,-1224.259888
25378.764,145811,-1224.251090
25400.833,145812,-1224.110597
25400.886,145813,-1224.287367
25400.922,145814,-1224.239550
25427.872,145815,-1224.365330
25427.924,145816,-1224.568353
25459.867,145817,-1224.669251
25459.918,145818,-1225.001659
25459.954,145819,-1225.049332
25466.209,145820,-1225.194008
25466.296,145821,-1225.321519
25490.780,145822,-1225.305868
25490.829,145823,-1225.379432
25490.865,145824,-1225.496270
25517.983,145825,-1225.398617
25518.035,145826,-1225.552164
25518.071,145827,-1225.465257
25518.105,145828,-1225.479609
25543.825,145829,-1225.558871
25543.877,145830,-1225.440231
25543.911,145831,-1225.595509
25573.799,145832,-1225.492519
25573.853,145833,-1225.477013
25573.908,145834,-1225.533052
25581.638,145835,-1225.375177
25581.693,145836,-1225.548558
25601.908,145837,-1225.433091
25601.958,145838,-1225.398328
25628.388,145839,-1225.467277
25628.658,145840,-1225.367893
25628.715,145841,-1225.530816
25651.805,145842,-1225.438933
25651.855,145843,-1225.489995
25682.482,145844,-1225.595437
25682.535,145845,-1225.493240
25682.572,145846,-1225.643758
25687.803,145847,-1225.566228
25687.851,145848,-1225.608491
25714.119,145849,-1225.664962
25714.208,145850,-1225.564136
25714.310,145851,-1225.737012
25737.912,145852,-1225.616496
25737.964,145853,-1225.665972
25763.011,145854,-1225.731458
25763.120,145855,-1225.574738
25764.884,145856,-1225.656235
25792.799,145857,-1225.538028
25792.852,145858,-1225.560530
25799.901,145859,-1225.669217
25799.957,145860,-1225.376187
25852.961,145861,-1225.508602
25853.271,145862,-1225.465690
25853.317,145863,-1225.626810
25853.358,145864,-1225.754321
25853.397,145865,-1225.736290
25875.741,145866,-1225.938736
25875.879,145867,-1225.893660
25875.917,145868,-1225.950852
25901.814,145869,-1226.014247
25901.872,145870,-1225.905560
25907.785,145871,-1226.073098
25908.541,145872,-1226.002059
25910.703,145873,-1226.088460
25936.166,145874,-1225.795646
25937.033,145875,-1224.298690
25937.076,145876,-1221.000784
25937.116,145877,-1221.252993
25961.812,145878,-1225.110779
25986.771,145879,-1226.951684
25986.921,145880,-1226.819197
25986.960,145881,-1226.435365
25986.996,145882,-1225.965998
26009.381,145883,-1225.947535
26032.840,145884,-1225.913710
26032.893,145885,-1225.796295
26034.700,145886,-1225.909671
26034.734,145887,-1225.780573
26060.975,145888,-1225.788939
26092.824,145889,-1225.763624
26092.877,145890,-1225.653062
26095.509,145891,-1225.728429
26095.556,145892,-1225.579570
26099.842,145893,-1225.532186
26099.906,145894,-1225.556130
26099.941,145895,-1225.364287
26099.976,145896,-1225.380009
26100.009,145897,-1225.250335
26129.844,145898,-1225.219899
26129.903,145899,-1225.049260
26129.938,145900,-1224.814648
26151.174,145901,-1224.814143
26151.311,145902,-1224.634272
26178.210,145903,-1224.652879
26178.270,145904,-1224.670549
26178.310,145905,-1224.592874
26188.823,145906,-1224.857849
26188.877,145907,-1224.893188
26213.836,145908,-1225.207278
26213.887,145909,-1225.447083
26213.927,145910,-1225.414411
26240.592,145911,-1225.671381
26240.654,145912,-1225.738454
26240.689,145913,-1225.835241
26240.725,145914,-1225.915945
26265.883,145915,-1225.830121
26265.937,145916,-1225.942270
26265.975,145917,-1226.027157
26293.782,145918,-1225.961598
26293.834,145919,-1226.135628
26293.869,145920,-1226.014103
26300.759,145921,-1226.093581
26300.804,145922,-1226.113126
26325.902,145923,-1226.036821
26326.453,145924,-1226.168155
26351.820,145925,-1226.078868
26351.875,145926,-1226.144138
26351.911,145927,-1226.137864
26382.850,145928,-1226.017781
26382.912,145929,-1226.211572
26390.317,145930,-1226.139162
26390.376,145931,-1226.203711
26390.412,145932,-1226.218207
26411.793,145933,-1226.156038
26411.844,145934,-1226.343554
26411.880,145935,-1226.253907
26411.918,145936,-1226.304320
26438.781,145937,-1226.335116
26438.831,145938,-1226.271216
26438.866,145939,-1226.494000
26465.958,145940,-1226.295377
26466.021,145941,-1226.415532
26466.060,145942,-1226.369951
26491.785,145943,-1226.176953
26491.834,145944,-1226.341030
26491.870,145945,-1226.280953
26491.904,145946,-1226.160510
26518.036,145947,-1226.107861
26519.976,145948,-1226.120338
26520.089,145949,-1226.378678
26544.817,145950,-1226.326245
26544.868,145951,-1226.510083
26569.924,145952,-1226.589345
26569.977,145953,-1226.549029
26570.012,145954,-1226.716928
26594.874,145955,-1226.593312
26594.928,145956,-1226.702143
26594.963,145957,-1226.671924
26594.999,145958,-1226.599947
26620.977,145959,-1226.789699
26621.027,145960,-1226.461401
26621.063,145961,-1225.505645
26646.980,145962,-1222.444299
26647.033,145963,-1221.726833
26672.931,145964,-1225.698715
26672.983,145965,-1227.160620
26673.019,145966,-1227.524258
26690.845,145967,-1227.486105
26690.897,145968,-1226.908988
26697.809,145969,-1226.830520
26697.884,145970,-1226.520613
26697.921,145971,-1226.598000
26722.821,145972,-1226.574921
26722.872,145973,-1226.417840
26722.908,145974,-1226.562804
26750.184,145975,-1226.358916
26750.250,145976,-1226.439332
26750.285,145977,-1226.327471
26750.320,145978,-1226.198590
26774.880,145979,-1226.296459
26774.930,145980,-1226.106058
26774.976,145981,-1226.112044
26797.843,145982,-1225.978763
26797.897,145983,-1225.797089
26797.932,145984,-1225.849954
26797.966,145985,-1225.578849
26798.000,145986,-1225.537667
26823.018,145987,-1225.405396
26823.069,145988,-1225.248387
26825.492,145989,-1225.328803
26825.543,145990,-1225.214274
26850.188,145991,-1225.354767
26885.101,145992,-1225.447010
26886.075,145993,-1225.594932
26886.113,145994,-1225.897843
26886.148,145995,-1225.966358
26887.700,145996,-1226.223472
26890.718,145997,-1226.271649
26890.760,145998,-1226.335477
26914.816,145999,-1226.555880
26914.866,146000,-1226.454261
26940.098,146001,-1226.593384
26940.150,146002,-1226.593384
26940.185,146003,-1226.560280
26966.874,146004,-1226.676901
26966.935,146005,-1226.509795
26984.509,146006,-1226.624685
26986.185,146007,-1226.543548
26986.226,146008,-1226.410628
27008.822,146009,-1226.528691
27008.874,146010,-1226.473734
27008.910,146011,-1226.369879
27008.945,146012,-1226.482172
27008.979,146013,-1226.348531
27037.169,146014,-1226.412142
27037.224,146015,-1226.341607
27037.260,146016,-1226.321774
27037.295,146017,-1226.436736
27060.825,146018,-1226.292132
27060.877,146019,-1226.409401
27060.912,146020,-1226.426278
27092.911,146021,-1226.380697
27092.977,146022,-1226.508569
27093.012,146023,-1226.270351
27097.822,146024,-1226.318889
27097.863,146025,-1226.358700
27100.757,146026,-1226.148682
27100.801,146027,-1226.184887
27125.891,146028,-1226.048721
27125.945,146029,-1226.243594
27126.324,146030,-1226.358484
27150.949,146031,-1226.381202
27175.864,146032,-1226.606654
27176.330,146033,-1226.512896
27176.370,146034,-1226.658798
27176.408,146035,-1226.645960
27202.925,146036,-1226.552202
27202.974,146037,-1226.698970
27206.291,146038,-1226.551914
27206.347,146039,-1226.709716
27206.383,146040,-1226.554005
27209.822,146041,-1225.837982
27209.870,146042,-1223.036201
27209.905,146043,-1220.385442
27209.939,146044,-1223.991163
27235.785,146045,-1227.142734
27235.833,146046,-1227.502693
27235.868,146047,-1227.463531
27262.808,146048,-1226.758254
27262.857,146049,-1226.576002
27291.810,146050,-1226.485346
27291.862,146051,-1226.408752
27291.897,146052,-1226.503592
27299.813,146053,-1226.311100
27299.850,146054,-1226.410483
27325.229,146055,-1226.285641
27325.280,146056,-1226.189791
27325.319,146057,-1226.267394
27351.809,146058,-1226.089470
27351.858,146059,-1226.092283
27375.730,146060,-1225.967224
27375.775,146061,-1225.879884
27375.811,146062,-1225.890558
27403.784,146063,-1225.663664
27403.832,146064,-1225.667631
27409.736,146065,-1225.441096
27409.775,146066,-1225.238507
27409.809,146067,-1225.179295
27436.591,146068,-1224.944323
27436.646,146069,-1224.980672
27436.682,146070,-1224.959901
27436.716,146071,-1224.968411
27436.749,146072,-1225.167467
27462.811,146073,-1225.185209
27462.861,146074,-1225.553101
27488.493,146075,-1225.729222
27488.554,146076,-1225.893660
27488.591,146077,-1226.186906
27515.817,146078,-1226.148177
27515.870,146079,-1226.349108
27515.905,146080,-1226.343410
27515.939,146081,-1226.348531
27523.770,146082,-1226.476042
27523.814,146083,-1226.354517
27523.848,146084,-1226.478350
27550.793,146085,-1226.401829
27550.845,146086,-1226.450944
27576.579,146087,-1226.503304
27576.711,146088,-1226.336342
27600.821,146089,-1226.503160
27600.874,146090,-1226.356753
27600.908,146091,-1226.288742
27630.833,146092,-1226.373701
27634.769,146093,-1226.175583
27634.814,146094,-1226.307638
27634.849,146095,-1226.231910
27634.884,146096,-1226.217702
27660.904,146097,-1226.320692
27660.964,146098,-1226.200032
27660.999,146099,-1226.349252
27685.809,146100,-1226.273596
27685.858,146101,-1226.280953
27718.294,146102,-1226.401035
27718.417,146103,-1226.207749
27718.498,146104,-1226.241719
27725.919,146105,-1226.209264
27728.089,146106,-1226.141614
27750.162,146107,-1226.212726
27750.216,146108,-1225.972993
27775.165,146109,-1226.007972
27775.218,146110,-1226.132887
27775.257,146111,-1226.195128
27804.876,146112,-1226.433057
27804.925,146113,-1226.453612
27830.812,146114,-1226.468253
27830.861,146115,-1226.607159
27830.897,146116,-1226.493135
27856.054,146117,-1226.623819
27856.142,146118,-1226.553284
27882.146,146119,-1226.522416
27882.198,146120,-1226.628795
27882.238,146121,-1226.497246
27902.835,146122,-1226.208326
27902.887,146123,-1223.734771
27908.206,146124,-1220.216966
27908.428,146125,-1222.339434
27908.503,146126,-1226.452458
27910.854,146127,-1227.964344
27910.912,146128,-1227.368908
27937.790,146129,-1226.737843
27937.864,146130,-1226.480946
27937.902,146131,-1226.289319
27961.871,146132,-1226.468325
27961.966,146133,-1226.301508
27987.087,146134,-1226.277419
27987.141,146135,-1226.310595
27987.177,146136,-1226.186978
28012.263,146137,-1226.252825
28012.400,146138,-1226.105625
28012.483,146139,-1226.037975
28012.552,146140,-1226.093148
28016.787,146141,-1225.878442
28040.819,146142,-1225.950636
28040.867,146143,-1225.767086
28040.902,146144,-1225.652557
28040.936,146145,-1225.603947
28066.877,146146,-1225.337313
28066.929,146147,-1225.303777
28066.963,146148,-1225.090585
28092.838,146149,-1225.000794
28092.889,146150,-1224.953771
28092.924,146151,-1224.811114
28122.038,146152,-1224.969060
28122.088,146153,-1224.885760
28122.122,146154,-1225.057482
28122.155,146155,-1225.340415
28148.835,146156,-1225.416359
28148.887,146157,-1225.828822
28148.941,146158,-1225.912988
28173.016,146159,-1226.041365
28173.063,146160,-1226.180415
28209.961,146161,-1226.135123
28210.151,146162,-1226.326822
28210.964,146163,-1226.235949
28216.352,146164,-1226.266024
28216.422,146165,-1226.358844
28241.541,146166,-1226.210346
28241.640,146167,-1226.387693
28241.689,146168,-1226.277275
28265.913,146169,-1226.225347
28265.966,146170,-1226.302878
28292.859,146171,-1226.128920
28292.907,146172,-1226.318456
28299.829,146173,-1226.166207
28299.861,146174,-1226.189791
28299.894,146175,-1226.209408
28304.883,146176,-1226.048577
28304.925,146177,-1226.199600
28304.959,146178,-1226.071295
28325.147,146179,-1226.102885
28325.300,146180,-1226.157769
28325.339,146181,-1226.052183
28325.376,146182,-1226.243666
28327.466,146183,-1226.127262
28327.503,146184,-1226.192460
28327.540,146185,-1226.257802
28330.698,146186,-1226.126685
28330.735,146187,-1226.321918
28347.825,146188,-1226.163683
28347.875,146189,-1226.233713
28352.752,146190,-1226.290906
28369.920,146191,-1226.164188
28369.971,146192,-1226.322279
28391.822,146193,-1226.136133
28391.874,146194,-1226.068410
28391.910,146195,-1226.179189
28412.917,146196,-1226.047279
28412.976,146197,-1226.034008
28438.771,146198,-1225.901449
28438.829,146199,-1225.867407
28438.866,146200,-1226.130723
28459.899,146201,-1226.119040
28462.762,146202,-1226.259461
28462.842,146203,-1226.356897
28462.877,146204,-1226.291627
28480.403,146205,-1226.465007
28488.763,146206,-1226.372115
28488.810,146207,-1226.395266
28502.766,146208,-1226.467820
28502.805,146209,-1226.353651
28529.816,146210,-1226.516069
28529.867,146211,-1226.250373
28529.902,146212,-1225.534422
28542.806,146213,-1222.474301
28542.852,146214,-1220.080801
28556.892,146215,-1223.966786
28556.931,146216,-1227.037148
28570.873,146217,-1227.430572
28584.821,146218,-1226.967046
28584.870,146219,-1226.374350
28597.858,146220,-1226.352930
28597.904,146221,-1226.184887
28606.827,146222,-1226.202196
28630.771,146223,-1226.176016
28630.820,146224,-1226.058313
28638.010,146225,-1226.133897
28638.060,146226,-1225.986336
28646.893,146227,-1226.006242
28671.136,146228,-1225.987418
28671.184,146229,-1225.789949
28679.210,146230,-1225.904550
28679.263,146231,-1225.728718
28691.342,146232,-1225.688762
28704.936,146233,-1225.623420
28704.974,146234,-1225.450833
28719.188,146235,-1225.441673
28719.234,146236,-1225.183622
28741.942,146237,-1225.123978
28742.019,146238,-1224.996827
28742.056,146239,-1224.795680
28756.965,146240,-1224.872994
28757.014,146241,-1224.741445
28781.805,146242,-1224.825971
28781.856,146243,-1224.899463
28781.892,146244,-1224.899896
28796.818,146245,-1225.244854
28796.855,146246,-1225.382462
28821.050,146247,-1225.638493
28821.096,146248,-1225.776174
28821.128,146249,-1225.865749
28845.850,146250,-1226.067256
28845.897,146251,-1225.985903
28855.074,146252,-1226.084421
28855.121,146253,-1226.129858
28864.085,146254,-1226.058458
28878.353,146255,-1226.190440
28878.405,146256,-1226.044971
28900.912,146257,-1226.155461
28900.964,146258,-1226.189503
28927.989,146259,-1226.046413
28928.325,146260,-1226.137503
28928.364,146261,-1226.036100
28935.628,146262,-1226.068987
28935.683,146263,-1226.035811
28945.962,146264,-1225.938231
28959.895,146265,-1226.042735
28959.957,146266,-1225.892794
28972.832,146267,-1225.978835
28972.873,146268,-1225.979845
28997.950,146269,-1225.871158
28997.999,146270,-1226.037037
28998.034,146271,-1225.920417
29013.944,146272,-1226.017348
29013.994,146273,-1226.024344
29029.143,146274,-1225.974003
29029.287,146275,-1226.114063
29040.849,146276,-1225.983884
29054.950,146277,-1226.100144
29054.997,146278,-1226.082763
29068.952,146279,-1226.010929
29069.003,146280,-1226.145076
29078.396,146281,-1226.027806
29092.354,146282,-1226.083412
29092.549,146283,-1226.096538
29115.923,146284,-1225.906930
29116.112,146285,-1225.977537
29116.151,146286,-1225.951069
29141.175,146287,-1225.976527
29141.247,146288,-1225.752301
29148.629,146289,-1225.721433
29148.684,146290,-1225.907363
29161.449,146291,-1225.986697
29174.925,146292,-1226.034153
29174.976,146293,-1226.120482
29187.993,146294,-1226.073026
29188.162,146295,-1226.262706
29212.006,146296,-1226.279150
29212.055,146297,-1226.190873
29212.087,146298,-1226.295305
29229.834,146299,-1226.182146
29229.882,146300,-1226.275327
29252.008,146301,-1226.285352
29252.060,146302,-1225.930081
29252.095,146303,-1224.693051
29266.993,146304,-1221.390890
29267.030,146305,-1221.782799
29291.890,146306,-1225.559232
29291.941,146307,-1227.067079
29291.982,146308,-1227.284165
29316.059,146309,-1226.663270
29316.101,146310,-1226.221525
29322.069,146311,-1226.098846
29322.117,146312,-1226.066175
29335.962,146313,-1226.128776
29349.838,146314,-1225.942991
29349.888,146315,-1225.989077
29372.060,146316,-1225.874115
29372.121,146317,-1225.787064
29372.154,146318,-1225.896905
29395.875,146319,-1225.717755
29395.929,146320,-1225.780429
29401.888,146321,-1225.667486
29401.929,146322,-1225.521584
29416.034,146323,-1225.563559
29430.253,146324,-1225.418595
29430.300,146325,-1225.387438
29443.877,146326,-1225.170208
29443.926,146327,-1224.995601
29456.787,146328,-1225.044572
29456.822,146329,-1224.790992
29470.826,146330,-1224.823014
29485.981,146331,-1224.706754
29486.028,146332,-1224.705528
29497.827,146333,-1224.888717
29497.876,146334,-1224.804984
29507.603,146335,-1225.064838
29531.520,146336,-1225.199994
29531.594,146337,-1225.403593
29536.861,146338,-1225.649312
29536.932,146339,-1225.660923
29550.750,146340,-1225.948544
29564.909,146341,-1225.909887
29564.956,146342,-1225.933904
29578.028,146343,-1226.072161
29578.069,146344,-1225.958930
29586.764,146345,-1226.079734
29611.445,146346,-1226.028671
29611.612,146347,-1225.985615
29616.880,146348,-1226.047351
29616.931,146349,-1225.859907
29631.524,146350,-1226.011579
29646.544,146351,-1225.989293
29646.604,146352,-1225.909599
29659.315,146353,-1225.930730
29659.418,146354,-1225.829904
29681.802,146355,-1225.998669
29684.598,146356,-1225.889477
29686.172,146357,-1225.882409
29696.894,146358,-1225.970109
29696.955,146359,-1225.836395
29720.830,146360,-1225.989870
29720.880,146361,-1225.936356
29720.916,146362,-1225.934769
29745.777,146363,-1226.081753
29745.819,146364,-1225.956694
29752.179,146365,-1226.110890
29752.291,146366,-1225.996000
29765.842,146367,-1226.041004
29779.905,146368,-1226.046774
29779.953,146369,-1225.979340
29792.794,146370,-1226.107645
29792.843,146371,-1226.046774
29802.725,146372,-1225.980061
29832.748,146373,-1225.978619
29832.803,146374,-1225.851901
29832.839,146375,-1226.038624
29832.874,146376,-1225.884789
29841.726,146377,-1225.743863
29865.850,146378,-1225.838631
29865.968,146379,-1225.827885
29871.777,146380,-1226.042158
29871.812,146381,-1226.082979
29897.012,146382,-1226.171544
29897.080,146383,-1226.363027
29897.116,146384,-1226.215322
29912.808,146385,-1226.431326
29912.858,146386,-1226.328409
29937.905,146387,-1226.294512
29937.957,146388,-1226.402189
29937.992,146389,-1226.352209
29956.919,146390,-1226.379038
29956.982,146391,-1226.100288
29970.914,146392,-1224.847103
29970.965,146393,-1222.055779
29979.928,146394,-1222.120833
29991.808,146395,-1225.457035
29991.849,146396,-1226.927018
30015.834,146397,-1227.140859
30015.887,146398,-1226.908123
30015.923,146399,-1226.364975
30040.798,146400,-1226.102596
30040.846,146401,-1226.190801
30049.715,146402,-1225.946164
30049.755,146403,-1226.055212
30057.697,146404,-1225.935274
30071.838,146405,-1225.904911
30071.890,146406,-1226.040499
30095.799,146407,-1225.892362
30095.851,146408,-1225.941476
30095.886,146409,-1225.762470
30121.808,146410,-1225.665972
30121.859,146411,-1225.672535
30129.519,146412,-1225.579714
30130.483,146413,-1225.589162
30152.849,146414,-1225.429629
30152.899,146415,-1225.362845
30152.934,146416,-1225.327721
30168.988,146417,-1225.130973
30169.041,146418,-1225.161553
30191.881,146419,-1224.975479
30191.947,146420,-1224.937327
30192.002,146421,-1225.000073
30207.823,146422,-1224.928240
30207.871,146423,-1225.116044
30231.794,146424,-1225.174246
30231.851,146425,-1225.359599
30231.893,146426,-1225.593706
30255.834,146427,-1225.655875
30255.889,146428,-1225.907579
30261.794,146429,-1225.930225
30277.918,146430,-1226.017781
30277.965,146431,-1226.148249
30286.748,146432,-1226.065742
30286.790,146433,-1226.198590
30311.805,146434,-1226.090624
30311.855,146435,-1226.097475
30311.890,146436,-1226.148682
30335.866,146437,-1225.970109
30335.952,146438,-1226.111756
30341.816,146439,-1225.996649
30341.864,146440,-1225.971046
30367.599,146441,-1226.037542
30367.713,146442,-1225.965493
30367.785,146443,-1226.048649
30385.798,146444,-1225.964555
30385.847,146445,-1226.011867
30397.775,146446,-1226.111034
30397.814,146447,-1225.945371
30406.895,146448,-1226.147095
30430.826,146449,-1226.069492
30430.884,146450,-1226.017060
30436.878,146451,-1226.064588
30436.928,146452,-1225.900728
30450.857,146453,-1226.079589
30464.804,146454,-1225.952727
30464.858,146455,-1225.823125
30478.431,146456,-1225.803219
30478.496,146457,-1225.725472
30487.424,146458,-1225.980711
30510.863,146459,-1226.049803
30510.919,146460,-1226.123728
30516.859,146461,-1226.229530
30516.909,146462,-1226.215034
30530.776,146463,-1226.429812
30545.771,146464,-1226.305474
30545.815,146465,-1226.383077
30558.208,146466,-1226.403920
30558.262,146467,-1226.289103
30582.829,146468,-1226.407021
30582.909,146469,-1226.058674
30582.972,146470,-1224.937543
30598.000,146471,-1222.031835
30598.124,146472,-1221.542995
30621.818,146473,-1225.455377
30621.870,146474,-1226.766692
30621.904,146475,-1227.059722
30639.145,146476,-1227.137109
30639.196,146477,-1226.490610
30661.320,146478,-1226.388486
30661.403,146479,-1226.160510
30661.459,146480,-1226.178973
30686.182,146481,-1226.154307
30686.234,146482,-1225.968738
30692.784,146483,-1226.028239
30692.831,146484,-1226.002275
30706.794,146485,-1225.896761
30720.821,146486,-1225.980638
30734.832,146487,-1225.799325
30734.902,146488,-1225.813100
30734.943,146489,-1225.750426
30743.783,146490,-1225.606832
30756.809,146491,-1225.658615
30756.863,146492,-1225.453429
30781.327,146493,-1225.397102
30781.379,146494,-1225.308825
30781.418,146495,-1225.105803
30806.010,146496,-1225.186219
30806.060,146497,-1224.903213
30812.852,146498,-1224.914032
30812.900,146499,-1224.916556
30829.824,146500,-1224.856262
30830.572,146501,-1225.107173
30841.414,146502,-1225.118785
30854.920,146503,-1225.402007
30854.969,146504,-1225.664169
30868.926,146505,-1225.720135
30868.974,146506,-1226.045836
30882.463,146507,-1226.048361
30900.823,146508,-1226.228376
30900.875,146509,-1226.297469
30906.908,146510,-1226.211716
30907.076,146511,-1226.398295
30920.834,146512,-1226.258379
30935.843,146513,-1226.310378
30935.892,146514,-1226.309729
30949.541,146515,-1226.196426
30949.704,146516,-1226.295449
30956.862,146517,-1226.129642
30980.867,146518,-1226.196498
30980.916,146519,-1226.245253
30986.756,146520,-1226.110602
30986.804,146521,-1226.270567
31001.299,146522,-1226.152937
31014.995,146523,-1226.174718
31015.049,146524,-1226.187916
31028.239,146525,-1226.107717
31028.297,146526,-1226.267755
31052.838,146527,-1226.149764
31052.900,146528,-1226.200321
31052.935,146529,-1226.142191
31068.186,146530,-1226.136710
31068.285,146531,-1226.290184
31090.804,146532,-1225.968017
31090.854,146533,-1226.007612
31090.889,146534,-1226.044827
31115.865,146535,-1226.055789
31115.914,146536,-1226.326822
31122.714,146537,-1226.286723
31122.752,146538,-1226.438539
31137.005,146539,-1226.487509
31149.848,146540,-1226.435437
31149.898,146541,-1226.594393
31162.823,146542,-1226.467964
31162.872,146543,-1226.563525
31197.255,146544,-1226.549822
31197.342,146545,-1226.536263
31197.401,146546,-1226.423032
31201.798,146547,-1225.310196
31201.849,146548,-1222.260461
31215.837,146549,-1221.500587
31228.934,146550,-1225.101259
31228.985,146551,-1227.343016
31241.797,146552,-1227.492308
31241.851,146553,-1227.205480
31256.854,146554,-1226.674448
31269.829,146555,-1226.426278
31269.877,146556,-1226.492558
31283.841,146557,-1226.338939
31283.891,146558,-1226.399160
31296.826,146559,-1226.346728
31296.879,146560,-1226.185752
31310.831,146561,-1226.324875
31325.912,146562,-1226.146302
31326.213,146563,-1226.189863
31338.789,146564,-1226.109520
31338.838,146565,-1225.989654
31346.828,146566,-1226.056655
31371.273,146567,-1225.826659
31371.335,146568,-1225.859474
31379.081,146569,-1225.699580
31379.146,146570,-1225.509684
31390.833,146571,-1225.574161
31404.846,146572,-1225.287477
31404.904,146573,-1225.252210
31418.802,146574,-1225.159678
31418.851,146575,-1225.070031
31428.525,146576,-1225.206052
31450.886,146577,-1225.091162
31450.938,146578,-1225.115612
31457.393,146579,-1225.379505
31457.446,146580,-1225.410445
31471.890,146581,-1225.744224
31484.905,146582,-1225.944145
31484.954,146583,-1226.046053
31497.945,146584,-1226.319466
31497.995,146585,-1226.262778
31512.157,146586,-1226.435221
31512.255,146587,-1226.446472
31528.059,146588,-1226.422383
31539.845,146589,-1226.582493
31539.896,146590,-1226.398006
31558.903,146591,-1226.518089
31558.953,146592,-1226.465079
31563.051,146593,-1226.404786
31585.771,146594,-1226.511165
31585.822,146595,-1226.364542
31594.893,146596,-1226.429163
31594.944,146597,-1226.378245
31603.813,146598,-1226.285713
31617.036,146599,-1226.424186
31617.087,146600,-1226.292420
31642.824,146601,-1226.353074
31642.879,146602,-1226.262057
31642.915,146603,-1226.135700
31658.823,146604,-1226.326966
31658.876,146605,-1226.133176
31671.910,146606,-1226.110385
31671.954,146607,-1226.031268
31686.458,146608,-1226.022180
31700.661,146609,-1226.294295
31700.769,146610,-1226.284415
31713.833,146611,-1226.467964
31713.887,146612,-1226.510588
31737.440,146613,-1226.540302
31737.491,146614,-1226.653100
31737.527,146615,-1226.540014
31751.847,146616,-1226.659447
31751.914,146617,-1226.622088
31775.932,146618,-1226.618698
31775.985,146619,-1226.736257
31778.322,146620,-1226.259172
31791.911,146621,-1225.076233
31791.975,146622,-1221.806383
31815.924,146623,-1221.757556
31816.000,146624,-1225.561540
31816.036,146625,-1227.165885
31840.764,146626,-1227.580152
31840.812,146627,-1227.143888
31846.729,146628,-1226.652884
31846.768,146629,-1226.585162
31862.906,146630,-1226.412358
31875.221,146631,-1226.474744
31875.273,146632,-1226.395770
31887.893,146633,-1226.299921
31887.943,146634,-1226.357618
31898.012,146635,-1226.199455
31920.933,146636,-1226.287300
31921.007,146637,-1226.203422
31931.659,146638,-1226.088100
31931.741,146639,-1226.144859
31941.785,146640,-1225.923374
31954.724,146641,-1225.966503
31954.769,146642,-1225.808556
31967.814,146643,-1225.679819
31967.992,146644,-1225.634094
31982.651,146645,-1225.374745
31989.564,146646,-1225.384481
31995.735,146647,-1225.215572
32010.779,146648,-1225.088494
32010.825,146649,-1225.205619
32024.265,146650,-1225.080200
32024.322,146651,-1225.270673
32032.806,146652,-1225.314307
32051.811,146653,-1225.477590
32051.862,146654,-1225.805166
32064.783,146655,-1225.816850
32064.833,146656,-1226.128199
32072.786,146657,-1226.179983
32110.882,146658,-1226.252176
32110.937,146659,-1226.402478
32110.972,146660,-1226.322928
32111.007,146661,-1226.460391
32112.711,146662,-1226.450294
32127.956,146663,-1226.443082
32128.010,146664,-1226.536840
32150.792,146665,-1226.381635
32150.838,146666,-1226.489456
32150.874,146667,-1226.374567
32176.187,146668,-1226.367210
32176.250,146669,-1226.410628
