timestamp_ms,sample_index,raw_ecg_mv
18.567,38676,-1232.401988
18.624,38677,-1231.340574
21.905,38678,-1231.758158
21.951,38679,-1231.848959
40.996,38680,-1230.940803
65.979,38681,-1232.031210
66.107,38682,-1231.108270
66.184,38683,-1231.814629
66.252,38684,-1231.784122
92.172,38685,-1230.801320
92.221,38686,-1232.011233
92.256,38687,-1231.173540
116.354,38688,-1231.648821
116.407,38689,-1231.566747
137.510,38690,-1230.616689
137.565,38691,-1231.918124
137.601,38692,-1230.957247
145.276,38693,-1231.265711
145.318,38694,-1231.351752
145.352,38695,-1230.590581
145.386,38696,-1231.913364
172.344,38697,-1231.208014
196.282,38698,-1231.739478
196.331,38699,-1231.783328
196.368,38700,-1230.880582
196.402,38701,-1232.230338
226.369,38702,-1231.647307
231.316,38703,-1232.120353
231.359,38704,-1232.001352
231.392,38705,-1231.267875
231.425,38706,-1232.481610
257.340,38707,-1231.363725
257.392,38708,-1231.135243
257.427,38709,-1228.267038
283.335,38710,-1225.090730
283.387,38711,-1229.705144
308.395,38712,-1231.878745
308.446,38713,-1232.972830
311.331,38714,-1233.064064
331.504,38715,-1231.747772
331.556,38716,-1232.448578
356.337,38717,-1231.530398
356.390,38718,-1231.898579
356.425,38719,-1231.695340
381.447,38720,-1230.942967
381.498,38721,-1232.155404
411.430,38722,-1231.160846
411.482,38723,-1231.589898
411.518,38724,-1231.422143
422.308,38725,-1230.775933
422.360,38726,-1231.998034
448.322,38727,-1230.751484
448.372,38728,-1231.353123
448.407,38729,-1231.317423
473.457,38730,-1230.392102
473.543,38731,-1231.365816
499.308,38732,-1230.372052
499.357,38733,-1230.695229
499.392,38734,-1230.409844
527.310,38735,-1229.639873
527.359,38736,-1230.529205
552.290,38737,-1229.416946
552.339,38738,-1230.548173
579.295,38739,-1230.632483
579.375,38740,-1230.093302
579.411,38741,-1231.511141
579.445,38742,-1230.843367
579.479,38743,-1231.753470
600.347,38744,-1231.833309
600.422,38745,-1231.261528
600.458,38746,-1232.466392
604.259,38747,-1231.608722
604.298,38748,-1232.302965
608.121,38749,-1232.039360
608.188,38750,-1231.409233
608.225,38751,-1232.824188
634.454,38752,-1231.889996
634.539,38753,-1232.582292
634.602,38754,-1232.353306
634.662,38755,-1231.842612
661.338,38756,-1232.499352
692.303,38757,-1232.296979
692.359,38758,-1231.621199
692.394,38759,-1232.565343
692.429,38760,-1231.468445
697.237,38761,-1232.260413
702.218,38762,-1232.460550
702.255,38763,-1231.757797
702.289,38764,-1232.835366
702.322,38765,-1231.807561
729.313,38766,-1232.485144
729.362,38767,-1232.232430
729.398,38768,-1231.697287
755.325,38769,-1232.486658
755.375,38770,-1231.399858
781.423,38771,-1232.421460
781.482,38772,-1232.235531
781.518,38773,-1231.783833
793.244,38774,-1232.931865
793.289,38775,-1231.970700
800.256,38776,-1232.881813
800.294,38777,-1232.574719
800.328,38778,-1231.898002
826.285,38779,-1233.405849
826.353,38780,-1232.294166
826.395,38781,-1233.160707
826.428,38782,-1232.997856
853.311,38783,-1232.427951
853.390,38784,-1233.217827
853.427,38785,-1231.799916
879.402,38786,-1230.829015
879.450,38787,-1227.206778
879.483,38788,-1228.000044
911.441,38789,-1232.771972
911.493,38790,-1233.342309
911.544,38791,-1234.344512
911.608,38792,-1233.481576
917.338,38793,-1232.427302
943.258,38794,-1233.423230
943.305,38795,-1232.463796
969.245,38796,-1233.225184
969.305,38797,-1232.758845
969.339,38798,-1231.957646
969.372,38799,-1233.200086
994.392,38800,-1232.342776
1019.336,38801,-1233.053751
1019.388,38802,-1232.363547
1019.423,38803,-1232.003876
1019.456,38804,-1233.019349
1019.489,38805,-1231.807705
1046.400,38806,-1232.547601
1046.465,38807,-1232.264668
1070.325,38808,-1231.564223
1070.374,38809,-1232.389222
1070.411,38810,-1231.234555
1096.323,38811,-1232.072320
1096.371,38812,-1231.311364
1122.691,38813,-1230.704821
1122.745,38814,-1232.093956
1122.817,38815,-1230.943472
1130.377,38816,-1231.879827
1130.426,38817,-1231.744238
1130.459,38818,-1231.562780
1130.491,38819,-1232.758629
1156.755,38820,-1231.922667
1156.808,38821,-1233.210110
1156.843,38822,-1232.906262
1182.355,38823,-1232.615107
1182.406,38824,-1233.661375
1207.328,38825,-1232.800748
1207.382,38826,-1233.737969
1207.418,38827,-1233.308124
1225.417,38828,-1232.838900
1225.507,38829,-1233.869807
1231.417,38830,-1232.883760
1231.469,38831,-1233.742080
1231.504,38832,-1233.395896
1233.325,38833,-1233.044519
1233.365,38834,-1233.903704
1258.447,38835,-1232.784016
1258.502,38836,-1233.785641
1283.446,38837,-1233.306753
1286.336,38838,-1233.051227
1286.372,38839,-1233.763572
1310.400,38840,-1232.718169
1310.459,38841,-1233.861801
1325.487,38842,-1233.437871
1325.539,38843,-1232.887583
1325.573,38844,-1233.775760
1333.323,38845,-1232.822024
1333.413,38846,-1233.792997
1357.375,38847,-1233.273866
1382.397,38848,-1232.805364
1382.445,38849,-1233.672554
1382.478,38850,-1232.708000
1382.511,38851,-1233.843194
1412.346,38852,-1234.002078
1420.700,38853,-1233.168785
1420.792,38854,-1234.420167
1420.828,38855,-1233.870745
1420.868,38856,-1233.526364
1444.336,38857,-1234.519911
1444.389,38858,-1233.588244
1444.425,38859,-1234.527340
1469.375,38860,-1234.016286
1469.431,38861,-1233.758379
1494.302,38862,-1234.316384
1494.349,38863,-1232.250027
1494.384,38864,-1230.044548
1522.364,38865,-1228.670342
1522.450,38866,-1232.519113
1528.306,38867,-1235.333876
1528.352,38868,-1234.695311
1530.238,38869,-1235.476100
1557.458,38870,-1234.521931
1557.516,38871,-1234.000059
1557.553,38872,-1234.615400
1557.587,38873,-1233.848892
1581.303,38874,-1234.515440
1616.317,38875,-1234.188801
1616.369,38876,-1234.081484
1616.404,38877,-1234.530225
1616.438,38878,-1233.768548
1645.274,38879,-1234.175675
1645.330,38880,-1233.572522
1645.365,38881,-1233.287064
1668.331,38882,-1233.914162
1668.382,38883,-1233.608727
1694.284,38884,-1234.221833
1694.334,38885,-1233.856969
1694.369,38886,-1233.593004
1718.364,38887,-1233.576560
1718.440,38888,-1233.002905
1742.707,38889,-1233.153279
1742.757,38890,-1233.057790
1742.793,38891,-1233.259514
1748.224,38892,-1232.595418
1748.259,38893,-1231.920071
1774.487,38894,-1234.142932
1774.535,38895,-1234.238493
1798.277,38896,-1233.805547
1800.241,38897,-1234.403435
1800.277,38898,-1234.337660
1825.379,38899,-1234.513276
1825.429,38900,-1234.778395
1854.095,38901,-1234.694085
1854.155,38902,-1234.480677
1854.190,38903,-1234.950982
1880.434,38904,-1234.495029
1880.513,38905,-1234.239791
1880.578,38906,-1235.709990
1911.349,38907,-1235.448549
1911.398,38908,-1234.800032
1911.433,38909,-1235.142177
1936.398,38910,-1235.475595
1936.459,38911,-1235.098110
1936.676,38912,-1235.008535
1936.716,38913,-1234.821812
1966.404,38914,-1235.031686
1966.452,38915,-1235.015820
1966.484,38916,-1234.993390
1966.516,38917,-1235.097822
1972.353,38918,-1235.112751
1972.389,38919,-1234.993101
1972.420,38920,-1235.088374
1998.406,38921,-1234.843016
1998.456,38922,-1234.748032
2023.331,38923,-1234.140624
2025.267,38924,-1235.102366
2025.308,38925,-1235.449776
2055.329,38926,-1235.730617
2055.377,38927,-1235.643494
2058.226,38928,-1235.687056
2060.253,38929,-1235.651067
2060.292,38930,-1235.685974
2085.413,38931,-1235.412272
2085.462,38932,-1235.292622
2085.494,38933,-1236.185632
2111.356,38934,-1236.141855
2111.403,38935,-1236.091514
2111.436,38936,-1235.918927
2111.467,38937,-1235.319668
2137.754,38938,-1232.735550
2137.822,38939,-1229.783828
2137.890,38940,-1232.686652
2166.453,38941,-1235.804975
2166.503,38942,-1236.740969
2166.538,38943,-1237.001400
2166.573,38944,-1236.594562
2166.605,38945,-1236.057761
2173.419,38946,-1235.807859
2173.460,38947,-1235.964796
2198.400,38948,-1235.850988
2198.455,38949,-1235.753840
2223.687,38950,-1235.747566
2225.471,38951,-1235.748071
2225.510,38952,-1235.604332
2255.410,38953,-1235.149750
2255.464,38954,-1235.682224
2260.344,38955,-1234.947304
2260.386,38956,-1234.321793
2260.421,38957,-1236.408488
2286.401,38958,-1235.747205
2286.942,38959,-1234.923432
2287.097,38960,-1235.440616
2312.461,38961,-1235.096235
2312.595,38962,-1234.560372
2342.639,38963,-1232.839622
2342.705,38964,-1231.549654
2370.507,38965,-1235.624382
2370.557,38966,-1235.252018
2377.524,38967,-1234.777602
2377.566,38968,-1234.584460
2377.599,38969,-1234.343646
2402.900,38970,-1234.134277
2402.985,38971,-1233.085268
2427.339,38972,-1234.555684
2453.511,38973,-1236.808186
2453.609,38974,-1235.314764
2455.334,38975,-1235.567694
2455.377,38976,-1235.801368
2455.419,38977,-1235.702850
2480.500,38978,-1235.551828
2480.540,38979,-1235.541586
2501.316,38980,-1235.557958
2501.367,38981,-1235.431817
2501.402,38982,-1235.269183
2507.460,38983,-1235.454175
2507.510,38984,-1235.743166
2507.545,38985,-1235.683233
2507.578,38986,-1235.527739
2532.426,38987,-1235.467085
2557.336,38988,-1235.530624
2557.385,38989,-1235.540649
2557.419,38990,-1235.475739
2557.452,38991,-1235.465210
2584.569,38992,-1235.551106
2612.402,38993,-1235.268822
2612.452,38994,-1235.147658
2612.490,38995,-1235.228074
2612.523,38996,-1234.388866
2619.340,38997,-1235.501198
2619.384,38998,-1235.788675
2619.420,38999,-1235.801441
2644.287,39000,-1235.774900
2644.336,39001,-1235.702850
2669.418,39002,-1235.342459
2669.470,39003,-1234.368095
2669.505,39004,-1236.867615
2693.266,39005,-1236.346680
2693.310,39006,-1235.139076
2718.368,39007,-1236.223208
2718.416,39008,-1236.299585
2721.281,39009,-1235.796897
2727.347,39010,-1235.687056
2727.383,39011,-1235.259591
2754.170,39012,-1233.041634
2754.251,39013,-1229.795945
2754.294,39014,-1232.088980
2778.412,39015,-1235.393232
2778.456,39016,-1236.519195
2811.441,39017,-1234.480317
2811.490,39018,-1236.197605
2811.522,39019,-1236.272395
2837.495,39020,-1236.499506
2837.542,39021,-1235.707610
2837.574,39022,-1235.700182
2837.644,39023,-1235.493048
2865.237,39024,-1235.415157
2865.288,39025,-1235.459007
2865.324,39026,-1235.269688
2891.289,39027,-1235.327746
2891.341,39028,-1235.141744
2891.382,39029,-1235.277405
2891.421,39030,-1234.932952
2891.460,39031,-1233.422653
2916.525,39032,-1235.356090
2916.574,39033,-1235.245022
2916.607,39034,-1234.076075
2916.640,39035,-1234.703028
2936.558,39036,-1234.958555
2936.605,39037,-1234.488034
2936.638,39038,-1234.062300
2963.358,39039,-1233.582474
2963.410,39040,-1232.983576
2963.446,39041,-1234.071171
2988.454,39042,-1233.667866
2988.847,39043,-1232.059410
3013.331,39044,-1235.942799
3013.382,39045,-1235.454536
3015.277,39046,-1235.130349
3032.729,39047,-1235.063420
3032.775,39048,-1235.218481
3037.373,39049,-1235.076546
3037.592,39050,-1234.931582
3037.650,39051,-1234.613237
3065.404,39052,-1233.114838
3065.454,39053,-1235.599428
3065.488,39054,-1236.631344
3065.522,39055,-1235.725496
3091.634,39056,-1235.329621
3115.366,39057,-1235.383135
3115.408,39058,-1235.172179
3115.442,39059,-1234.084874
3115.475,39060,-1235.391790
3141.876,39061,-1234.403146
3141.996,39062,-1235.106116
3142.102,39063,-1235.453382
3147.480,39064,-1235.075320
3147.594,39065,-1235.043010
3172.474,39066,-1234.791161
3172.580,39067,-1234.799238
3172.618,39068,-1234.856359
3199.540,39069,-1234.673891
3199.698,39070,-1234.830900
3231.375,39071,-1234.602491
3231.980,39072,-1234.587201
3232.023,39073,-1234.576455
3233.359,39074,-1234.674612
3233.399,39075,-1234.837535
3240.777,39076,-1234.917734
3240.829,39077,-1235.096235
3240.869,39078,-1235.098760
3240.910,39079,-1235.050294
3240.948,39080,-1235.182998
3291.504,39081,-1235.178815
3291.565,39082,-1235.223025
3291.600,39083,-1235.200595
3315.343,39084,-1235.153500
3315.397,39085,-1234.968941
3336.462,39086,-1233.162294
3336.512,39087,-1229.551524
3336.546,39088,-1230.704172
3336.578,39089,-1234.418508
3336.610,39090,-1235.900175
3342.328,39091,-1236.198470
3342.368,39092,-1236.088557
3367.662,39093,-1235.436794
3367.710,39094,-1233.670246
3397.560,39095,-1235.902194
3426.563,39096,-1235.854811
3426.612,39097,-1235.748215
3431.376,39098,-1235.583777
3431.415,39099,-1235.257932
3431.448,39100,-1235.333876
3457.541,39101,-1235.120468
3457.598,39102,-1235.105539
3457.633,39103,-1235.057073
3457.668,39104,-1234.048452
3483.497,39105,-1233.643922
3510.438,39106,-1234.961945
3510.514,39107,-1235.566685
3510.568,39108,-1235.040918
3510.619,39109,-1234.576599
3521.469,39110,-1234.524239
3548.335,39111,-1234.095836
3549.973,39112,-1234.068286
3550.038,39113,-1234.003737
3550.090,39114,-1233.878029
3572.342,39115,-1234.023715
3572.394,39116,-1233.847954
3572.429,39117,-1234.218876
3597.947,39118,-1234.234382
3598.896,39119,-1234.991370
3626.429,39120,-1235.170881
3626.482,39121,-1235.166554
3626.517,39122,-1235.241632
3633.322,39123,-1234.130527
3633.373,39124,-1233.251508
3633.409,39125,-1237.085638
3633.443,39126,-1235.948280
3658.377,39127,-1235.262259
3660.243,39128,-1236.489914
3660.280,39129,-1236.139619
3685.383,39130,-1235.316639
3685.436,39131,-1233.826318
3715.345,39132,-1233.787372
3715.410,39133,-1235.628709
3715.445,39134,-1235.667943
3721.464,39135,-1235.123281
3721.518,39136,-1236.867903
3721.552,39137,-1235.993212
3748.904,39138,-1235.607938
3748.951,39139,-1234.713846
3748.986,39140,-1235.409387
3749.020,39141,-1235.246248
3773.303,39142,-1234.930500
3798.306,39143,-1234.519406
3798.357,39144,-1234.737214
3801.241,39145,-1236.159957
3801.278,39146,-1235.527090
3830.339,39147,-1235.856469
3830.391,39148,-1236.109111
3830.426,39149,-1235.374408
3833.232,39150,-1235.223746
3833.272,39151,-1236.826217
3858.482,39152,-1236.544582
3858.539,39153,-1234.844026
3858.573,39154,-1237.531422
3885.342,39155,-1235.826106
3885.424,39156,-1235.230165
3910.326,39157,-1235.112246
3910.376,39158,-1231.787223
3910.411,39159,-1229.621338
3942.721,39160,-1235.396045
3942.783,39161,-1238.390102
3942.818,39162,-1237.144922
3942.852,39163,-1236.907858
3947.257,39164,-1236.372428
3947.300,39165,-1235.739055
3947.335,39166,-1235.587744
3973.330,39167,-1236.927043
3973.379,39168,-1235.718429
3976.289,39169,-1236.936347
4000.566,39170,-1235.867360
4000.640,39171,-1235.405493
4025.343,39172,-1236.241815
4025.393,39173,-1236.397454
4025.428,39174,-1235.861951
4025.460,39175,-1234.850517
4056.321,39176,-1237.093139
4056.371,39177,-1236.043337
4056.407,39178,-1234.363480
4081.326,39179,-1235.875654
4081.373,39180,-1234.788420
4112.669,39181,-1235.409532
4112.737,39182,-1234.999520
4113.332,39183,-1235.080873
4132.519,39184,-1233.925124
4132.600,39185,-1234.226448
4156.410,39186,-1233.810667
4156.519,39187,-1235.389410
4156.718,39188,-1236.287829
4162.490,39189,-1235.800070
4162.569,39190,-1235.596904
4162.605,39191,-1235.688498
4193.971,39192,-1235.360922
4194.029,39193,-1235.439534
4218.284,39194,-1236.238858
4218.362,39195,-1235.925418
4218.399,39196,-1236.449021
4242.284,39197,-1236.681901
4242.606,39198,-1236.601414
4242.645,39199,-1236.213616
4242.724,39200,-1234.507362
4276.328,39201,-1236.697191
4276.381,39202,-1236.969234
4276.416,39203,-1235.243436
4282.241,39204,-1237.325371
4282.276,39205,-1236.271241
4306.281,39206,-1235.743671
4306.334,39207,-1236.159308
4331.324,39208,-1236.462435
4331.373,39209,-1234.406031
4331.408,39210,-1235.550025
4357.862,39211,-1237.035442
4357.918,39212,-1235.945900
4357.954,39213,-1234.582729
4386.743,39214,-1236.034538
4386.872,39215,-1234.962305
4386.937,39216,-1235.969556
4387.000,39217,-1234.980119
4393.180,39218,-1236.735632
4417.351,39219,-1236.591749
4417.401,39220,-1235.536321
4445.183,39221,-1235.976985
4445.237,39222,-1235.684604
4445.273,39223,-1235.417032
4472.340,39224,-1236.455007
4472.390,39225,-1236.064108
4479.307,39226,-1235.475379
4479.399,39227,-1235.332650
4479.464,39228,-1232.019743
4505.313,39229,-1229.561766
4505.364,39230,-1233.119309
4505.401,39231,-1236.926394
4505.435,39232,-1232.412734
4532.421,39233,-1238.837401
4532.473,39234,-1238.102770
4532.509,39235,-1236.317543
4557.369,39236,-1235.829568
4557.449,39237,-1235.739921
4578.409,39238,-1235.449848
4578.551,39239,-1235.460305
4581.008,39240,-1235.615655
4605.421,39241,-1235.512377
4605.708,39242,-1235.895487
4605.747,39243,-1235.608010
4605.785,39244,-1235.517858
4635.785,39245,-1235.440111
4658.935,39246,-1235.441337
4659.972,39247,-1235.318514
4660.017,39248,-1235.314764
4660.058,39249,-1235.197999
4679.043,39250,-1235.052818
4707.259,39251,-1234.955238
4707.338,39252,-1234.811788
4707.375,39253,-1234.842223
4707.410,39254,-1234.796642
4732.411,39255,-1234.705697
4732.462,39256,-1234.583523
4732.495,39257,-1234.596649
4758.332,39258,-1234.695816
4758.383,39259,-1234.898478
4758.418,39260,-1235.106909
4758.452,39261,-1235.396117
4758.487,39262,-1235.739055
4779.003,39263,-1236.010449
4779.057,39264,-1235.999342
4779.092,39265,-1236.073195
4779.126,39266,-1236.139330
4784.272,39267,-1236.142432
4784.315,39268,-1236.349853
4784.349,39269,-1236.423057
4810.314,39270,-1236.467772
4810.363,39271,-1236.505853
4810.398,39272,-1236.403800
4836.419,39273,-1236.434019
4836.637,39274,-1236.448804
4862.326,39275,-1236.408705
4862.380,39276,-1236.465753
4862.416,39277,-1236.374952
4882.323,39278,-1236.402358
4882.373,39279,-1236.392117
4888.366,39280,-1236.453925
4888.407,39281,-1236.305499
4912.326,39282,-1236.205899
4938.499,39283,-1236.336006
4938.573,39284,-1236.249965
4938.636,39285,-1236.194071
4938.672,39286,-1236.567949
4964.303,39287,-1236.641802
4964.353,39288,-1236.733036
4964.388,39289,-1236.799604
4993.278,39290,-1236.817418
4993.327,39291,-1236.887953
5002.327,39292,-1236.828164
5002.379,39293,-1236.910311
5002.414,39294,-1236.745224
5028.408,39295,-1237.023181
5028.460,39296,-1236.941251
5054.451,39297,-1236.025739
5054.503,39298,-1233.075676
5054.537,39299,-1231.368268
5080.338,39300,-1235.133378
5080.388,39301,-1237.487067
5107.393,39302,-1237.578013
5107.446,39303,-1237.467306
5107.482,39304,-1237.285704
5115.318,39305,-1236.943775
5115.370,39306,-1237.013877
5143.445,39307,-1236.825928
5165.425,39308,-1236.851099
5165.500,39309,-1236.829174
5165.538,39310,-1236.708586
5165.591,39311,-1236.609131
5192.287,39312,-1236.387573
5192.364,39313,-1236.602712
5218.016,39314,-1236.426879
5218.158,39315,-1236.250975
5218.225,39316,-1236.464599
5244.304,39317,-1236.080551
5244.354,39318,-1236.384183
5269.687,39319,-1236.103991
5269.776,39320,-1235.984630
5269.826,39321,-1235.936597
5293.288,39322,-1235.677175
5293.337,39323,-1235.690229
5311.314,39324,-1235.672126
5311.367,39325,-1235.508627
5311.402,39326,-1235.630729
5313.261,39327,-1235.675011
5313.294,39328,-1235.882073
5342.661,39329,-1235.737108
5343.329,39330,-1236.180368
5343.531,39331,-1236.657813
5368.464,39332,-1236.489337
5368.644,39333,-1236.864081
5393.494,39334,-1236.920408
5393.562,39335,-1236.957478
5395.452,39336,-1237.152567
5420.818,39337,-1237.134248
5420.870,39338,-1237.132013
5428.327,39339,-1237.175862
5428.376,39340,-1236.999164
5431.299,39341,-1236.970099
5436.193,39342,-1237.110809
5436.229,39343,-1236.931154
5436.263,39344,-1237.315057
5436.296,39345,-1237.256494
5462.400,39346,-1237.255196
5462.458,39347,-1237.126964
5462.492,39348,-1237.268034
5487.832,39349,-1237.259379
5487.911,39350,-1236.842877
5512.439,39351,-1236.821601
5512.582,39352,-1236.756403
5512.618,39353,-1236.872735
5542.716,39354,-1237.072152
5542.791,39355,-1237.136123
5546.556,39356,-1237.493414
5546.605,39357,-1237.529763
5546.640,39358,-1237.505242
5552.278,39359,-1237.591499
5552.325,39360,-1237.477908
5552.359,39361,-1237.499761
5552.392,39362,-1237.600659
5578.391,39363,-1237.698095
5578.428,39364,-1237.782405
5605.292,39365,-1237.409176
5605.353,39366,-1236.146831
5605.389,39367,-1232.937635
5630.400,39368,-1233.718496
5630.451,39369,-1237.094581
5630.486,39370,-1238.076013
5657.251,39371,-1238.366591
5657.331,39372,-1237.683815
5657.390,39373,-1238.003098
5657.452,39374,-1238.044856
5657.513,39375,-1237.629075
5681.319,39376,-1237.878183
5681.370,39377,-1237.514978
5681.405,39378,-1237.576065
5681.440,39379,-1237.424898
5681.474,39380,-1237.243729
5707.317,39381,-1237.423961
5707.367,39382,-1237.222886
5707.403,39383,-1237.199446
5707.438,39384,-1237.142831
5732.390,39385,-1236.964546
5757.335,39386,-1237.025489
5757.385,39387,-1236.859104
5757.421,39388,-1236.705990
5757.454,39389,-1236.654712
5778.376,39390,-1236.353676
5785.198,39391,-1236.572565
5785.236,39392,-1236.203807
5785.269,39393,-1236.180368
5785.303,39394,-1236.351296
5812.353,39395,-1236.611006
5836.784,39396,-1236.650817
5837.697,39397,-1236.509891
5837.766,39398,-1236.893290
5837.803,39399,-1237.068401
5862.300,39400,-1237.203557
5862.350,39401,-1237.518007
5862.385,39402,-1237.892030
5880.412,39403,-1237.676242
5880.464,39404,-1237.143913
5880.499,39405,-1237.541086
5880.533,39406,-1237.925423
5880.566,39407,-1236.989717
5906.309,39408,-1238.470951
5906.358,39409,-1238.477081
5906.393,39410,-1238.359883
5906.429,39411,-1237.917129
5932.383,39412,-1238.000213
5958.295,39413,-1238.084451
5958.347,39414,-1237.623594
5958.382,39415,-1237.208029
5958.415,39416,-1237.797190
5987.755,39417,-1237.528898
5994.409,39418,-1237.852363
5994.487,39419,-1237.934654
5994.528,39420,-1236.998587
5994.567,39421,-1237.048207
6020.327,39422,-1237.367201
6020.381,39423,-1237.166703
6020.416,39424,-1235.148523
6049.694,39425,-1236.191979
6049.745,39426,-1239.187118
6049.780,39427,-1239.246835
6072.315,39428,-1238.570695
6072.368,39429,-1237.955281
6072.403,39430,-1237.988096
6072.437,39431,-1238.230497
6092.515,39432,-1238.075724
6092.565,39433,-1238.343656
6092.602,39434,-1238.324255
6099.213,39435,-1237.179469
6100.929,39436,-1235.323274
6100.972,39437,-1232.129368
6101.007,39438,-1233.753835
6101.041,39439,-1237.719443
6123.313,39440,-1238.695249
6123.364,39441,-1238.909450
6148.333,39442,-1238.969672
6148.383,39443,-1238.095630
6151.217,39444,-1237.486707
6180.431,39445,-1237.278564
6180.496,39446,-1237.416244
6186.332,39447,-1237.870105
6186.380,39448,-1237.658356
6186.414,39449,-1237.428144
6212.469,39450,-1237.199663
6212.535,39451,-1237.101433
6212.569,39452,-1236.920408
6212.602,39453,-1236.949473
6238.705,39454,-1234.788420
6257.303,39455,-1235.759899
6257.353,39456,-1238.011247
6257.388,39457,-1238.118853
6257.422,39458,-1237.411556
6264.283,39459,-1236.879154
6264.328,39460,-1236.608986
6264.362,39461,-1236.927764
6266.254,39462,-1236.351801
6266.288,39463,-1236.317759
6292.263,39464,-1236.951059
6293.142,39465,-1235.951237
6293.181,39466,-1235.277044
6302.227,39467,-1235.371596
6302.265,39468,-1236.420893
6306.228,39469,-1236.930793
6306.264,39470,-1238.427894
6326.414,39471,-1237.928380
6326.464,39472,-1237.957877
6326.499,39473,-1237.707038
6332.266,39474,-1237.708625
6332.305,39475,-1237.999059
6332.340,39476,-1237.081888
6347.295,39477,-1237.239618
6347.345,39478,-1238.642600
6372.329,39479,-1238.187513
6372.418,39480,-1238.138109
6372.477,39481,-1237.548226
6375.299,39482,-1237.310153
6375.361,39483,-1237.497741
6393.455,39484,-1237.730983
6393.535,39485,-1237.436077
6420.365,39486,-1237.388405
6420.414,39487,-1237.297532
6420.449,39488,-1237.132445
6437.600,39489,-1236.842084
6437.691,39490,-1237.156750
6461.350,39491,-1237.213510
6461.433,39492,-1237.406796
6461.490,39493,-1237.389342
6483.321,39494,-1237.715188
6483.371,39495,-1237.533514
6486.217,39496,-1237.442929
6486.252,39497,-1237.671194
6505.561,39498,-1237.529475
6510.314,39499,-1237.352200
6510.364,39500,-1237.389342
6530.312,39501,-1237.624603
6530.362,39502,-1237.537769
6535.378,39503,-1236.983803
6552.578,39504,-1235.981312
6552.634,39505,-1232.640999
6574.322,39506,-1232.806446
6574.404,39507,-1237.446679
6577.298,39508,-1238.543289
6592.790,39509,-1238.292738
6592.847,39510,-1237.847026
6614.315,39511,-1237.428649
6614.366,39512,-1237.129849
6614.401,39513,-1236.759504
6638.470,39514,-1236.963176
6640.804,39515,-1236.794339
6645.242,39516,-1237.034648
6645.288,39517,-1236.476283
6671.313,39518,-1236.357066
6671.366,39519,-1236.393703
6671.402,39520,-1236.351729
6685.333,39521,-1235.945612
6685.381,39522,-1235.812619
6708.370,39523,-1235.462974
6708.448,39524,-1235.890944
6710.368,39525,-1235.340728
6734.437,39526,-1235.300772
6734.509,39527,-1234.990216
6745.785,39528,-1234.928408
6746.732,39529,-1234.692282
6753.298,39530,-1234.351507
6768.694,39531,-1234.740892
6768.812,39532,-1234.617780
6782.477,39533,-1234.642951
6782.526,39534,-1234.805946
6790.843,39535,-1234.657159
6820.328,39536,-1234.835371
6820.379,39537,-1235.285266
6820.412,39538,-1235.464705
6820.442,39539,-1235.659649
6830.463,39540,-1235.533869
6853.738,39541,-1235.862167
6853.854,39542,-1236.303696
6860.802,39543,-1235.883659
6860.845,39544,-1235.843127
6885.288,39545,-1235.941357
6885.342,39546,-1235.828270
6885.378,39547,-1236.023503
6902.099,39548,-1235.975975
6902.229,39549,-1235.883299
6929.505,39550,-1235.996457
6929.554,39551,-1235.918927
6929.588,39552,-1235.935875
6943.263,39553,-1235.880774
6943.305,39554,-1235.831660
6957.360,39555,-1235.825529
6957.398,39556,-1235.596327
6966.359,39557,-1235.585797
6980.548,39558,-1235.498385
6980.595,39559,-1235.862311
7003.397,39560,-1235.966960
7003.458,39561,-1235.997251
7005.593,39562,-1236.187652
7028.351,39563,-1236.082282
7028.400,39564,-1236.244628
7037.958,39565,-1236.254004
7038.029,39566,-1236.214986
7047.693,39567,-1236.216140
7061.251,39568,-1236.275063
7061.298,39569,-1236.364134
7083.412,39570,-1236.250181
7083.463,39571,-1235.723838
7083.499,39572,-1233.310432
7108.284,39573,-1230.535624
7108.330,39574,-1233.239680
7117.274,39575,-1236.940025
7117.310,39576,-1237.411195
7131.492,39577,-1237.555943
7131.541,39578,-1237.132734
7141.799,39579,-1236.740536
7163.339,39580,-1236.616343
7163.385,39581,-1236.485875
7170.490,39582,-1236.541120
7170.540,39583,-1236.467340
7183.364,39584,-1236.423417
7198.259,39585,-1236.362042
7198.326,39586,-1236.410075
7211.264,39587,-1236.338891
7211.302,39588,-1236.291291
7223.045,39589,-1236.213976
7243.302,39590,-1236.180584
7243.351,39591,-1236.198903
7250.262,39592,-1236.049323
7263.240,39593,-1235.902555
7263.275,39594,-1235.877673
7277.407,39595,-1235.428283
7277.456,39596,-1235.537043
7292.718,39597,-1235.637508
7292.767,39598,-1235.474369
7315.522,39599,-1235.530047
7315.569,39600,-1235.527234
7315.601,39601,-1235.523844
7330.579,39602,-1235.718140
7330.625,39603,-1235.930106
7357.431,39604,-1236.299440
7357.481,39605,-1236.454790
7357.516,39606,-1236.611222
7372.572,39607,-1236.745441
7372.619,39608,-1236.754384
7386.627,39609,-1236.918749
7386.676,39610,-1237.044457
7396.456,39611,-1237.127252
7419.602,39612,-1236.999525
7419.646,39613,-1237.050154
7425.503,39614,-1237.125738
7425.536,39615,-1236.867110
7441.795,39616,-1236.910599
7453.200,39617,-1236.751932
7453.267,39618,-1236.950843
7466.348,39619,-1236.724381
7466.386,39620,-1236.480754
7475.466,39621,-1236.669064
7499.818,39622,-1236.812009
7499.922,39623,-1236.426374
7505.399,39624,-1236.288550
7505.448,39625,-1236.255951
7518.605,39626,-1236.079758
7532.598,39627,-1236.397165
7532.645,39628,-1236.378341
7547.150,39629,-1236.383895
7547.203,39630,-1236.556698
7563.300,39631,-1236.410003
7572.319,39632,-1236.516238
7572.377,39633,-1236.703754
7593.865,39634,-1236.609491
7593.915,39635,-1236.658390
7619.218,39636,-1236.457387
7619.270,39637,-1236.632859
7619.305,39638,-1236.646778
7625.302,39639,-1236.124113
7625.350,39640,-1234.507434
7648.220,39641,-1230.987682
7648.265,39642,-1232.129512
7650.223,39643,-1235.711577
7674.352,39644,-1236.974571
7674.413,39645,-1237.350902
7680.249,39646,-1237.082032
7680.285,39647,-1236.640576
7693.350,39648,-1236.324178
7707.256,39649,-1236.191979
7722.125,39650,-1235.881640
7722.192,39651,-1235.137705
7722.229,39652,-1235.851854
7731.425,39653,-1236.594202
7747.431,39654,-1236.437553
7748.353,39655,-1235.991048
7769.105,39656,-1235.939337
7769.162,39657,-1235.997179
7769.197,39658,-1235.715183
7786.422,39659,-1235.735521
7786.479,39660,-1235.628998
7800.439,39661,-1235.301349
7800.559,39662,-1235.236656
7826.837,39663,-1234.966993
7826.883,39664,-1235.095658
7826.935,39665,-1234.805441
7841.435,39666,-1234.830683
7841.487,39667,-1234.709808
7863.320,39668,-1234.849868
7863.370,39669,-1235.052241
7865.282,39670,-1234.883981
7889.420,39671,-1235.263053
7889.600,39672,-1235.095730
7897.338,39673,-1235.449992
7897.385,39674,-1235.798195
7909.317,39675,-1235.878899
7922.434,39676,-1235.968330
7922.484,39677,-1236.220107
7936.413,39678,-1236.403800
7936.466,39679,-1236.131397
7946.701,39680,-1236.200417
7969.326,39681,-1236.323168
7969.369,39682,-1236.204240
7975.379,39683,-1236.293094
7975.429,39684,-1236.339612
7990.029,39685,-1236.310187
8002.308,39686,-1236.000857
8002.353,39687,-1236.151807
8016.483,39688,-1236.264461
8016.522,39689,-1235.867865
8040.564,39690,-1236.236839
8040.645,39691,-1235.694628
8040.684,39692,-1235.817235
8056.401,39693,-1235.892530
8056.453,39694,-1236.058698
8078.407,39695,-1236.024441
8078.457,39696,-1235.789180
8080.359,39697,-1236.074060
8103.323,39698,-1236.307302
8103.371,39699,-1236.575450
8110.306,39700,-1236.603577
8110.340,39701,-1236.454935
8123.458,39702,-1236.423490
8137.986,39703,-1236.391828
8138.038,39704,-1236.348844
8152.338,39705,-1237.020296
8160.358,39706,-1236.087114
8160.471,39707,-1235.941140
8184.650,39708,-1233.491385
8184.698,39709,-1230.795406
8190.773,39710,-1234.323452
8190.823,39711,-1236.771476
8203.488,39712,-1237.126026
8216.361,39713,-1237.142975
8216.413,39714,-1236.539173
8231.333,39715,-1236.446857
8231.386,39716,-1236.397165
8243.516,39717,-1236.240229
8258.299,39718,-1236.400555
8258.346,39719,-1236.097356
8272.326,39720,-1236.013190
8272.377,39721,-1236.216501
8285.325,39722,-1236.103270
8285.376,39723,-1235.900536
8299.458,39724,-1235.760908
8312.338,39725,-1235.738695
8312.388,39726,-1235.732853
8327.307,39727,-1235.701913
8327.360,39728,-1235.511656
8337.054,39729,-1235.490957
8358.303,39730,-1235.280290
8358.353,39731,-1235.038177
8370.456,39732,-1234.827222
8370.608,39733,-1234.783227
8376.349,39734,-1234.905834
8399.343,39735,-1234.854123
8399.396,39736,-1234.835660
8408.284,39737,-1234.891266
8408.330,39738,-1234.988918
8417.294,39739,-1235.285482
8431.428,39740,-1235.480427
8431.486,39741,-1235.625824
8453.346,39742,-1235.826972
8453.394,39743,-1235.986360
8456.263,39744,-1236.167818
8470.448,39745,-1236.268572
8470.497,39746,-1236.142143
8494.345,39747,-1235.740354
8494.435,39748,-1236.373437
8517.450,39749,-1236.659327
8517.535,39750,-1236.332544
8517.592,39751,-1236.373798
8528.486,39752,-1236.256095
8528.537,39753,-1236.278814
8542.600,39754,-1236.257177
8542.650,39755,-1236.043625
8550.523,39756,-1235.873634
8574.320,39757,-1235.894982
8574.369,39758,-1235.719150
8580.300,39759,-1235.806633
8580.334,39760,-1236.101755
8594.301,39761,-1236.057400
8608.306,39762,-1235.863898
8622.373,39763,-1235.950011
8622.512,39764,-1236.182387
8622.589,39765,-1236.342497
8632.407,39766,-1236.392982
8646.322,39767,-1236.533619
8646.373,39768,-1236.554895
8669.441,39769,-1236.557203
8669.492,39770,-1236.535134
8669.525,39771,-1236.623050
8693.657,39772,-1236.704692
8693.709,39773,-1236.531816
8700.263,39774,-1235.751749
8700.312,39775,-1233.060097
8725.377,39776,-1230.750547
8725.461,39777,-1234.418292
8725.515,39778,-1237.330058
8740.950,39779,-1237.729757
8741.267,39780,-1237.709779
8763.365,39781,-1237.327246
8763.447,39782,-1236.935409
8766.021,39783,-1236.742916
8791.624,39784,-1236.630839
8791.927,39785,-1236.855931
8798.059,39786,-1236.600909
8798.893,39787,-1236.330741
8808.309,39788,-1237.331789
8823.352,39789,-1237.186536
8823.406,39790,-1236.862999
8845.328,39791,-1236.945073
8845.384,39792,-1236.839415
8845.424,39793,-1236.707000
8861.332,39794,-1236.699932
8861.383,39795,-1236.366730
8884.376,39796,-1236.713419
8884.438,39797,-1236.357426
8884.473,39798,-1236.145028
8908.295,39799,-1236.205682
8908.345,39800,-1236.207702
8915.216,39801,-1236.134426
8915.255,39802,-1236.051775
8928.684,39803,-1236.042255
8942.755,39804,-1235.912292
8942.803,39805,-1236.237055
8957.326,39806,-1236.402358
8957.375,39807,-1236.788930
8971.424,39808,-1236.947670
8971.474,39809,-1237.336838
8983.312,39810,-1237.422807
8997.714,39811,-1237.257937
8997.766,39812,-1237.562579
9011.510,39813,-1237.493342
9011.566,39814,-1237.558107
9021.320,39815,-1237.439683
9044.320,39816,-1237.739854
9044.374,39817,-1237.637801
9052.258,39818,-1237.474951
9052.297,39819,-1237.400666
9083.249,39820,-1237.316644
9083.312,39821,-1237.115929
9083.348,39822,-1237.251734
9090.905,39823,-1237.157327
9090.947,39824,-1236.916657
9103.381,39825,-1236.700942
9118.326,39826,-1237.002482
9118.379,39827,-1236.592254
9131.409,39828,-1236.652404
9131.460,39829,-1236.869706
9155.392,39830,-1237.119103
9155.446,39831,-1237.198725
9155.487,39832,-1237.129200
9170.317,39833,-1237.373043
9170.370,39834,-1237.390208
9195.296,39835,-1237.780386
9195.374,39836,-1237.500698
9195.419,39837,-1237.333881
9210.272,39838,-1237.270053
9210.312,39839,-1237.264716
9233.355,39840,-1236.969739
9233.407,39841,-1235.461748
9235.233,39842,-1232.671001
9258.385,39843,-1232.549476
9258.468,39844,-1236.708154
9266.230,39845,-1238.924956
9266.271,39846,-1238.662145
9278.224,39847,-1238.435178
9295.259,39848,-1238.025095
9295.815,39849,-1237.332583
9306.306,39850,-1237.456488
9306.353,39851,-1237.419489
9315.259,39852,-1237.335035
9338.416,39853,-1237.445525
9338.469,39854,-1237.472210
9346.996,39855,-1237.467090
9347.043,39856,-1237.756658
9359.354,39857,-1237.412926
9373.299,39858,-1237.059891
9373.349,39859,-1237.191008
9386.232,39860,-1237.321765
9386.268,39861,-1237.112540
9410.327,39862,-1236.973417
9410.380,39863,-1236.936779
9410.415,39864,-1237.079364
9425.368,39865,-1236.812009
9425.423,39866,-1236.842011
9453.410,39867,-1237.010271
9453.490,39868,-1236.764409
9453.527,39869,-1236.551506
9473.333,39870,-1236.792752
9473.383,39871,-1237.170309
9481.429,39872,-1237.205793
9481.479,39873,-1237.652586
9492.864,39874,-1237.589624
9513.340,39875,-1238.248672
9513.394,39876,-1238.198547
9533.244,39877,-1238.334352
9533.285,39878,-1238.386208
9533.319,39879,-1238.327428
9547.348,39880,-1238.841439
9547.400,39881,-1238.749773
9561.207,39882,-1238.582451
9561.244,39883,-1238.918465
9570.462,39884,-1239.050376
9594.386,39885,-1238.818649
9595.353,39886,-1238.815836
9601.265,39887,-1238.580431
9601.303,39888,-1238.417292
9613.235,39889,-1238.588365
9627.337,39890,-1238.607116
9627.391,39891,-1238.457392
9642.754,39892,-1238.646278
9642.793,39893,-1238.614256
9657.547,39894,-1238.142437
9657.676,39895,-1238.832208
9668.332,39896,-1238.447150
9683.262,39897,-1238.676497
9683.304,39898,-1238.754821
9697.257,39899,-1238.804297
9697.309,39900,-1238.866466
9705.237,39901,-1239.277126
9729.302,39902,-1238.730084
9729.440,39903,-1238.823481
9735.338,39904,-1239.078431
9735.391,39905,-1238.939597
9749.336,39906,-1238.086903
9763.932,39907,-1237.064218
9764.104,39908,-1233.977124
9776.419,39909,-1233.744532
9776.471,39910,-1237.879048
9785.397,39911,-1240.079984
9809.367,39912,-1239.700264
9809.418,39913,-1239.534240
9815.454,39914,-1238.600553
9815.607,39915,-1238.900363
9828.421,39916,-1238.507949
9843.302,39917,-1238.239152
9843.355,39918,-1238.659981
9857.345,39919,-1239.024340
9857.397,39920,-1238.348488
9880.327,39921,-1237.989034
9880.375,39922,-1238.484365
9880.411,39923,-1238.746672
9895.481,39924,-1237.752042
9895.546,39925,-1237.764952
9912.335,39926,-1237.723843
9912.386,39927,-1237.839309
9921.346,39928,-1237.742234
9935.434,39929,-1237.354363
9935.480,39930,-1237.279934
9958.395,39931,-1237.213654
9958.448,39932,-1237.074676
9960.353,39933,-1237.100279
9991.722,39934,-1236.963608
9991.858,39935,-1236.738373
9991.900,39936,-1236.807105
9991.939,39937,-1237.009550
10001.279,39938,-1237.106121
10023.303,39939,-1237.354003
10023.360,39940,-1237.570873
10030.271,39941,-1237.907392
10030.311,39942,-1238.091447
10043.870,39943,-1238.253864
10057.782,39944,-1238.407339
10057.878,39945,-1238.419239
10072.416,39946,-1238.644619
10072.475,39947,-1238.607333
10096.456,39948,-1238.579421
10096.507,39949,-1238.597596
10096.542,39950,-1238.620675
10111.359,39951,-1238.764846
10111.440,39952,-1238.624281
10136.340,39953,-1238.638128
10136.390,39954,-1238.580792
10136.424,39955,-1238.482706
10150.315,39956,-1238.600769
10150.365,39957,-1238.634378
10173.448,39958,-1238.643898
10173.501,39959,-1238.529658
10175.301,39960,-1238.614040
10199.876,39961,-1238.814538
10200.696,39962,-1238.603943
10205.591,39963,-1238.913849
10205.788,39964,-1238.813961
10218.431,39965,-1238.788069
10237.110,39966,-1238.893439
10237.180,39967,-1239.075763
10247.519,39968,-1238.777251
10247.572,39969,-1238.599039
10255.296,39970,-1237.846377
10278.340,39971,-1234.333765
10278.392,39972,-1232.438698
10286.197,39973,-1236.710606
10286.234,39974,-1239.164905
10298.313,39975,-1239.714183
10313.325,39976,-1239.334391
10313.377,39977,-1238.705706
10326.350,39978,-1238.466479
10326.402,39979,-1238.381375
10354.362,39980,-1238.230281
10354.428,39981,-1238.186214
10354.462,39982,-1238.070099
10368.354,39983,-1237.993505
10368.409,39984,-1237.910998
10383.331,39985,-1237.771082
10383.384,39986,-1237.720813
10392.709,39987,-1237.602895
10405.328,39988,-1237.587461
10405.388,39989,-1237.277410
10428.323,39990,-1237.247551
10431.212,39991,-1237.102298
10431.252,39992,-1236.896968
10453.271,39993,-1236.732459
10453.320,39994,-1236.617641
10460.246,39995,-1236.419307
10460.283,39996,-1236.459406
10473.269,39997,-1236.543572
10487.560,39998,-1236.265471
10487.615,39999,-1236.387212
10501.328,40000,-1236.502751
10501.411,40001,-1236.722578
10525.307,40002,-1237.046620
10525.358,40003,-1237.257144
10525.393,40004,-1237.468316
10541.298,40005,-1237.480216
10541.349,40006,-1237.699249
10565.326,40007,-1237.690090
10565.377,40008,-1237.800580
10565.412,40009,-1237.839021
10581.420,40010,-1237.885323
10581.524,40011,-1237.989467
10603.511,40012,-1237.985067
10603.625,40013,-1237.967830
10605.293,40014,-1237.806927
10628.312,40015,-1237.740070
10628.362,40016,-1237.858638
10635.309,40017,-1237.668381
10635.405,40018,-1237.517647
10652.648,40019,-1237.747571
10663.557,40020,-1237.415883
10663.606,40021,-1237.527600
10676.621,40022,-1237.589336
10676.718,40023,-1237.242936
10685.333,40024,-1237.330708
10709.771,40025,-1237.277626
10709.827,40026,-1237.068978
10716.278,40027,-1237.151197
10716.321,40028,-1237.275967
10728.268,40029,-1237.323495
10745.038,40030,-1237.217837
10745.093,40031,-1237.349099
10756.485,40032,-1237.662034
10756.536,40033,-1237.385592
10780.405,40034,-1237.461103
10780.500,40035,-1237.379606
10780.567,40036,-1237.547722
10797.659,40037,-1237.249571
10797.710,40038,-1237.346574
10811.340,40039,-1237.127252
10811.388,40040,-1236.505564
10820.372,40041,-1233.984480
10843.861,40042,-1230.748383
10845.863,40043,-1233.466070
10850.285,40044,-1237.207307
10850.333,40045,-1237.628714
10863.814,40046,-1237.819836
10878.306,40047,-1237.444732
10892.417,40048,-1237.015680
10892.470,40049,-1236.584321
10892.504,40050,-1236.450824
10902.333,40051,-1236.438924
10915.442,40052,-1236.242248
10915.491,40053,-1236.258259
10940.154,40054,-1236.016291
10942.781,40055,-1235.826106
10942.833,40056,-1235.901185
10955.310,40057,-1235.794589
10955.357,40058,-1235.624887
10978.330,40059,-1235.487711
10978.382,40060,-1235.430014
10980.221,40061,-1235.153933
11005.016,40062,-1234.991298
11005.096,40063,-1234.956103
11011.301,40064,-1234.679517
11011.350,40065,-1234.602923
11035.282,40066,-1234.354464
11035.326,40067,-1234.289555
11035.361,40068,-1234.287463
11051.040,40069,-1234.463296
11052.787,40070,-1234.257244
11075.310,40071,-1234.391607
11075.370,40072,-1234.504261
11075.406,40073,-1234.706778
11102.520,40074,-1234.761591
11102.570,40075,-1234.905690
11105.219,40076,-1235.077123
11105.257,40077,-1235.188695
11118.217,40078,-1235.287718
11133.366,40079,-1235.405709
11133.450,40080,-1235.170881
11146.951,40081,-1235.443862
11147.002,40082,-1235.226775
11155.499,40083,-1235.122776
11179.226,40084,-1234.964685
11179.306,40085,-1235.118088
11185.964,40086,-1235.057578
11186.011,40087,-1235.055559
11198.801,40088,-1234.908503
11210.401,40089,-1234.988053
11210.456,40090,-1234.817774
11233.733,40091,-1234.561093
11233.787,40092,-1234.727117
11260.593,40093,-1234.846767
11260.650,40094,-1234.876841
11260.691,40095,-1234.952136
11270.990,40096,-1235.033994
11271.142,40097,-1235.383496
11288.632,40098,-1235.736243
11288.715,40099,-1235.218626
11291.581,40100,-1235.285338
11313.322,40101,-1235.132873
11313.373,40102,-1235.343901
11320.202,40103,-1235.322553
11320.238,40104,-1235.285555
11348.271,40105,-1234.831188
11348.331,40106,-1233.930317
11348.367,40107,-1230.504395
11362.320,40108,-1229.499020
11362.370,40109,-1233.626324
11371.856,40110,-1235.740498
11385.337,40111,-1235.685253
11385.386,40112,-1235.554929
11408.377,40113,-1235.278126
11408.441,40114,-1235.204562
11410.777,40115,-1234.810562
11434.371,40116,-1234.683050
11434.422,40117,-1234.717236
11442.126,40118,-1234.579917
11442.404,40119,-1234.727045
11466.374,40120,-1234.107015
11466.424,40121,-1233.988880
11466.460,40122,-1234.157717
11480.494,40123,-1234.059343
11480.545,40124,-1233.867066
11505.438,40125,-1233.638297
11505.493,40126,-1233.707317
11505.528,40127,-1233.205206
11520.718,40128,-1233.222227
11520.765,40129,-1232.794474
11544.356,40130,-1233.043077
11544.404,40131,-1232.226299
11544.439,40132,-1232.360806
11569.676,40133,-1232.188724
11569.723,40134,-1231.940626
11575.545,40135,-1231.963127
11575.593,40136,-1231.920359
11591.330,40137,-1232.329650
11603.382,40138,-1232.584023
11603.434,40139,-1232.668477
11616.453,40140,-1232.929557
11616.499,40141,-1233.184507
11625.561,40142,-1233.392867
11648.412,40143,-1233.142172
11648.465,40144,-1233.576056
11658.355,40145,-1233.698302
11658.406,40146,-1233.966594
11681.431,40147,-1233.714241
11681.474,40148,-1233.743955
11681.507,40149,-1233.685536
11697.396,40150,-1233.636710
11697.447,40151,-1233.932841
11710.475,40152,-1233.809730
11710.525,40153,-1233.813047
11723.440,40154,-1234.071171
11737.926,40155,-1233.855022
11738.179,40156,-1233.833025
11751.467,40157,-1233.965080
11751.589,40158,-1233.455612
11761.317,40159,-1233.538192
11783.485,40160,-1233.630507
11783.534,40161,-1233.530475
11804.265,40162,-1234.152235
11804.317,40163,-1234.161539
11804.354,40164,-1234.335208
11818.369,40165,-1234.248085
11818.428,40166,-1234.283280
11832.360,40167,-1234.095187
11832.408,40168,-1233.978927
11842.196,40169,-1233.963277
11856.350,40170,-1233.742729
11856.400,40171,-1233.212274
11878.327,40172,-1230.859306
11878.376,40173,-1228.702869
11880.257,40174,-1232.623040
11903.299,40175,-1235.328611
11903.349,40176,-1235.274087
11912.301,40177,-1235.153356
11912.338,40178,-1234.995265
11936.467,40179,-1234.547750
11936.515,40180,-1233.806845
11936.548,40181,-1233.535379
11951.279,40182,-1234.043692
11951.328,40183,-1234.239935
11965.479,40184,-1234.176685
11965.517,40185,-1233.545620
11979.568,40186,-1233.431812
11993.352,40187,-1233.711139
11993.403,40188,-1233.135104
12015.529,40189,-1233.191864
12015.579,40190,-1233.115198
12015.612,40191,-1232.804210
12043.291,40192,-1233.332357
12043.341,40193,-1232.915494
12045.206,40194,-1232.680305
12045.244,40195,-1232.300368
12070.539,40196,-1231.878312
12095.307,40197,-1231.917691
12095.360,40198,-1231.392790
12095.395,40199,-1230.795334
12095.429,40200,-1231.898651
12127.430,40201,-1232.647922
12137.285,40202,-1232.605875
12137.622,40203,-1232.350421
12161.489,40204,-1233.007088
12161.536,40205,-1232.871644
12187.486,40206,-1233.103154
12187.832,40207,-1233.274587
12187.892,40208,-1232.668766
12192.231,40209,-1232.869913
12193.221,40210,-1232.736776
12216.545,40211,-1232.022556
12216.594,40212,-1232.990861
12216.625,40213,-1232.798296
12243.400,40214,-1232.929413
12243.453,40215,-1232.621382
12247.271,40216,-1232.203942
12247.306,40217,-1231.838718
12272.522,40218,-1232.058905
12272.570,40219,-1231.122334
12272.602,40220,-1232.236108
12298.492,40221,-1231.538836
12298.606,40222,-1231.594874
12323.494,40223,-1232.015776
12325.384,40224,-1231.493760
12325.422,40225,-1231.541937
12347.364,40226,-1231.451352
12347.426,40227,-1231.659495
12351.495,40228,-1231.495419
12376.497,40229,-1231.127887
12376.548,40230,-1231.062617
12402.288,40231,-1232.007266
12402.333,40232,-1231.569343
12402.368,40233,-1231.247248
12402.402,40234,-1231.336751
12402.440,40235,-1230.643518
12427.319,40236,-1226.585378
12427.370,40237,-1225.991961
12427.407,40238,-1229.547197
12427.441,40239,-1230.817475
12427.474,40240,-1231.667429
12448.750,40241,-1231.412046
12448.797,40242,-1231.573959
12451.293,40243,-1230.975422
12451.337,40244,-1230.619646
12451.372,40245,-1230.296613
12481.495,40246,-1229.885448
12481.546,40247,-1230.095177
12506.391,40248,-1229.898430
12506.441,40249,-1229.768034
12535.471,40250,-1229.556212
12535.520,40251,-1229.408075
12535.554,40252,-1229.994207
12542.852,40253,-1228.795762
12542.896,40254,-1229.731684
12542.930,40255,-1229.163222
12568.450,40256,-1228.405872
12568.501,40257,-1228.757898
12568.533,40258,-1228.660678
12568.565,40259,-1227.962685
12593.368,40260,-1227.601356
12618.466,40261,-1227.767812
12618.513,40262,-1228.170179
12620.380,40263,-1227.586354
12620.415,40264,-1227.726919
12650.390,40265,-1228.020022
12650.440,40266,-1228.308652
12650.475,40267,-1228.231050
12654.995,40268,-1228.366422
12655.049,40269,-1228.621877
12655.084,40270,-1228.645821
12655.118,40271,-1227.930014
12681.518,40272,-1228.912671
12706.327,40273,-1229.093985
12706.379,40274,-1229.731252
12736.480,40275,-1228.669333
12736.551,40276,-1228.023916
12736.585,40277,-1229.693965
12761.412,40278,-1226.958175
12761.463,40279,-1228.619929
12761.498,40280,-1229.364441
12761.531,40281,-1228.236891
12787.536,40282,-1228.344569
12812.407,40283,-1227.502333
12812.458,40284,-1228.956737
12812.494,40285,-1229.682137
12812.528,40286,-1228.409767
12842.500,40287,-1229.214933
12857.305,40288,-1228.811052
12857.346,40289,-1228.225713
12857.380,40290,-1228.603197
12857.413,40291,-1227.419032
12863.490,40292,-1227.598687
12866.395,40293,-1230.832405
12866.433,40294,-1231.310932
12891.665,40295,-1230.699124
12892.022,40296,-1229.570420
12892.060,40297,-1230.323803
12892.096,40298,-1229.838424
12917.340,40299,-1229.407642
12917.393,40300,-1226.422528
12917.428,40301,-1222.791781
12949.515,40302,-1225.841372
12949.563,40303,-1229.367398
12949.597,40304,-1231.115266
12975.329,40305,-1232.578613
12975.378,40306,-1231.694402
12975.441,40307,-1231.499385
12975.522,40308,-1231.007444
13001.297,40309,-1230.234444
13026.366,40310,-1228.848411
13026.419,40311,-1231.503208
13026.453,40312,-1231.578863
13026.487,40313,-1231.634036
13060.831,40314,-1231.133512
13086.315,40315,-1231.213784
13086.366,40316,-1231.185873
13086.400,40317,-1231.118944
13086.433,40318,-1230.636811
13111.387,40319,-1229.824288
13111.437,40320,-1229.032609
13111.471,40321,-1231.514170
13137.653,40322,-1231.720943
13137.707,40323,-1231.201812
13137.747,40324,-1230.486077
13137.788,40325,-1230.877553
13137.826,40326,-1229.996731
13166.573,40327,-1230.692056
13166.664,40328,-1230.630969
13166.732,40329,-1229.956415
13166.797,40330,-1231.209240
13176.338,40331,-1230.787689
13201.277,40332,-1231.458276
13201.341,40333,-1231.782607
13201.377,40334,-1231.463469
13201.411,40335,-1232.474830
13226.345,40336,-1232.010151
13251.333,40337,-1232.481754
13251.388,40338,-1232.375303
13251.423,40339,-1232.295103
13251.457,40340,-1233.052525
13273.319,40341,-1232.446342
13278.224,40342,-1232.963238
13278.262,40343,-1232.837458
13280.224,40344,-1232.419369
13280.260,40345,-1232.859167
13305.343,40346,-1232.281689
13331.498,40347,-1232.738219
13331.553,40348,-1232.487235
13331.590,40349,-1231.814845
13331.625,40350,-1232.519979
13357.465,40351,-1231.992625
13357.667,40352,-1232.599240
13357.730,40353,-1232.431918
13373.336,40354,-1232.244546
13373.423,40355,-1233.094355
13378.952,40356,-1232.384606
13379.142,40357,-1232.787694
13404.326,40358,-1232.685426
13429.323,40359,-1232.416340
13429.374,40360,-1233.230881
13429.409,40361,-1232.772260
13429.445,40362,-1232.935471
13455.298,40363,-1232.179925
13481.437,40364,-1229.259865
13481.487,40365,-1226.952622
13481.522,40366,-1228.859373
13481.555,40367,-1233.687700
13488.827,40368,-1233.938323
13490.448,40369,-1233.484173
13490.498,40370,-1233.817519
13515.385,40371,-1233.004564
13515.439,40372,-1233.171670
13541.936,40373,-1232.850728
13541.996,40374,-1232.634363
13542.037,40375,-1233.377288
13572.322,40376,-1232.823611
13572.374,40377,-1233.191719
13576.272,40378,-1233.001390
13576.315,40379,-1232.688310
13576.351,40380,-1233.039471
13602.713,40381,-1232.309744
13602.885,40382,-1232.762019
13603.154,40383,-1232.656649
13603.200,40384,-1232.107515
13603.824,40385,-1232.497981
13630.348,40386,-1231.813042
13630.523,40387,-1232.165357
13654.302,40388,-1232.001352
13654.356,40389,-1231.601005
13654.391,40390,-1232.033085
13673.685,40391,-1231.424595
13674.615,40392,-1232.251037
13681.399,40393,-1231.976614
13683.803,40394,-1231.825447
13683.936,40395,-1232.631839
13705.281,40396,-1232.435524
13705.331,40397,-1232.929125
13705.366,40398,-1232.902512
13705.399,40399,-1232.775578
13731.366,40400,-1233.316129
13731.420,40401,-1232.968503
13731.456,40402,-1233.240834
13757.347,40403,-1233.234632
13757.404,40404,-1233.087143
13757.439,40405,-1233.479340
13776.442,40406,-1233.306032
13776.493,40407,-1232.930279
13776.527,40408,-1233.173328
13776.561,40409,-1232.763894
13802.411,40410,-1233.082960
13802.472,40411,-1232.881164
13802.512,40412,-1232.537793
13827.405,40413,-1232.866523
13827.454,40414,-1232.597004
13827.488,40415,-1232.980187
13827.522,40416,-1232.952708
13860.349,40417,-1232.892054
13860.403,40418,-1233.395247
13860.451,40419,-1233.219054
13886.333,40420,-1233.695417
13886.383,40421,-1233.679911
13886.418,40422,-1233.577137
13912.327,40423,-1233.764509
13912.381,40424,-1233.584277
13912.416,40425,-1233.802950
13912.451,40426,-1233.311946
13938.793,40427,-1232.007771
13940.932,40428,-1229.545827
13941.272,40429,-1229.083960
13956.363,40430,-1233.033340
13956.413,40431,-1234.443462
13956.448,40432,-1234.375668
13963.625,40433,-1234.686224
13963.680,40434,-1233.945174
13966.276,40435,-1233.903921
13966.331,40436,-1233.743811
13991.227,40437,-1233.638224
13992.363,40438,-1233.709841
13992.421,40439,-1233.435491
14016.342,40440,-1233.658563
14016.396,40441,-1233.438159
14042.809,40442,-1233.311946
14043.231,40443,-1233.455396
14044.221,40444,-1233.128397
14066.479,40445,-1233.284107
14087.493,40446,-1233.109645
14087.593,40447,-1232.856570
14087.638,40448,-1232.949174
14087.683,40449,-1232.531013
14113.449,40450,-1232.924797
14113.501,40451,-1232.696893
14113.536,40452,-1232.515940
14113.571,40453,-1232.643090
14140.978,40454,-1232.401699
14166.366,40455,-1232.694874
14166.418,40456,-1232.668982
14166.452,40457,-1232.734613
14166.486,40458,-1232.997135
14195.907,40459,-1232.949896
14203.234,40460,-1233.416739
14203.314,40461,-1233.443063
14203.351,40462,-1233.423879
14203.385,40463,-1233.755206
14227.391,40464,-1233.543168
14227.453,40465,-1233.886539
14227.488,40466,-1233.743017
14253.402,40467,-1233.699023
14253.462,40468,-1233.873269
14278.615,40469,-1233.600288
14278.723,40470,-1233.875432
14280.307,40471,-1233.699528
14307.372,40472,-1233.465277
14307.422,40473,-1233.557448
14333.306,40474,-1233.313172
14333.354,40475,-1233.630219
14333.387,40476,-1233.360340
14358.315,40477,-1233.266798
14358.374,40478,-1233.383130
14393.318,40479,-1233.213284
14393.369,40480,-1233.595961
14395.215,40481,-1233.636349
14395.250,40482,-1233.658923
14395.283,40483,-1233.950800
14402.007,40484,-1233.845141
14402.050,40485,-1234.162477
14402.083,40486,-1234.170482
14427.291,40487,-1234.045135
14427.341,40488,-1234.106294
14452.390,40489,-1233.831510
14452.450,40490,-1233.893463
14452.486,40491,-1232.810845
14452.521,40492,-1229.999328
14452.555,40493,-1228.910003
14486.315,40494,-1232.220457
14486.366,40495,-1234.643888
14491.302,40496,-1234.698557
14491.345,40497,-1235.120612
14491.384,40498,-1234.622685
14494.258,40499,-1233.243575
14494.303,40500,-1234.595278
14518.327,40501,-1234.603356
14518.378,40502,-1233.965440
14544.279,40503,-1233.701764
14544.338,40504,-1233.872115
14544.373,40505,-1234.021190
14568.322,40506,-1234.145167
14568.371,40507,-1233.990683
14598.307,40508,-1234.069584
14598.352,40509,-1233.761264
14598.387,40510,-1233.516916
14603.244,40511,-1233.522758
14603.286,40512,-1233.174338
14605.223,40513,-1233.577570
14631.324,40514,-1233.472417
14631.372,40515,-1233.328318
14656.313,40516,-1233.264851
14656.361,40517,-1232.885275
14656.396,40518,-1233.308484
14682.348,40519,-1233.054977
14682.414,40520,-1233.044447
14707.325,40521,-1233.372889
14707.378,40522,-1233.457992
14707.414,40523,-1233.676593
14707.448,40524,-1233.413133
14707.482,40525,-1233.818168
14713.402,40526,-1233.400223
14713.450,40527,-1233.968614
14715.473,40528,-1234.429759
14715.539,40529,-1234.561814
14715.576,40530,-1234.371629
14741.951,40531,-1234.395213
14742.003,40532,-1234.182310
14765.335,40533,-1234.461998
14765.384,40534,-1234.203586
14765.420,40535,-1234.269144
14792.510,40536,-1234.452766
14792.558,40537,-1234.080546
14813.365,40538,-1234.117328
14813.416,40539,-1232.951699
14816.220,40540,-1234.406536
14843.553,40541,-1234.543279
14845.204,40542,-1233.872908
14845.245,40543,-1234.024868
14845.280,40544,-1233.862378
14866.260,40545,-1234.106222
14892.282,40546,-1234.177983
14892.331,40547,-1234.085018
14892.365,40548,-1234.360090
14892.399,40549,-1234.302176
14922.323,40550,-1234.285805
14926.238,40551,-1233.889496
14926.273,40552,-1234.629031
14950.900,40553,-1234.829962
14950.994,40554,-1234.570252
14951.083,40555,-1234.297128
14951.191,40556,-1233.375630
14951.257,40557,-1230.568367
14976.413,40558,-1228.638609
14976.465,40559,-1231.106250
15002.356,40560,-1234.574580
15002.405,40561,-1235.634767
15002.440,40562,-1235.467157
15025.830,40563,-1235.011492
15025.909,40564,-1234.631051
15030.323,40565,-1234.475773
15030.380,40566,-1234.496977
15030.415,40567,-1234.400766
15057.336,40568,-1234.531739
15057.386,40569,-1232.319480
15057.421,40570,-1234.448006
15057.455,40571,-1234.927615
15082.417,40572,-1234.414470
15107.402,40573,-1234.285516
15107.451,40574,-1234.008425
15107.485,40575,-1234.000131
15107.518,40576,-1234.171636
15142.439,40577,-1233.747633
15166.653,40578,-1233.618391
15166.734,40579,-1233.092769
15166.794,40580,-1231.220924
15166.852,40581,-1234.072469
15193.411,40582,-1233.730107
15193.473,40583,-1233.726285
15193.514,40584,-1233.554491
15220.309,40585,-1233.848531
15220.361,40586,-1233.637864
15229.281,40587,-1233.392290
15229.326,40588,-1233.807782
15229.360,40589,-1233.740204
15255.317,40590,-1234.153822
15255.371,40591,-1234.261932
15255.407,40592,-1234.241378
15255.441,40593,-1234.771111
15282.395,40594,-1234.459978
15306.407,40595,-1234.356339
15306.467,40596,-1234.584965
15306.503,40597,-1234.703533
15306.540,40598,-1234.733391
15338.872,40599,-1234.626723
15342.776,40600,-1234.434014
15342.823,40601,-1234.429327
15367.345,40602,-1234.401560
15367.398,40603,-1234.370115
15394.450,40604,-1234.283569
15394.639,40605,-1234.486519
15394.734,40606,-1234.435601
15423.350,40607,-1233.616083
15423.399,40608,-1233.716981
15427.209,40609,-1234.492433
15427.243,40610,-1234.033018
15427.277,40611,-1234.203009
15453.311,40612,-1234.226593
15453.379,40613,-1234.270659
15456.232,40614,-1234.311840
15456.269,40615,-1234.264745
15456.303,40616,-1234.834290
15505.307,40617,-1234.497482
15505.365,40618,-1234.382087
15505.401,40619,-1234.696177
15505.436,40620,-1235.019426
15527.352,40621,-1233.910339
15533.259,40622,-1232.094749
15533.295,40623,-1228.629594
15533.330,40624,-1229.592778
15533.364,40625,-1233.363297
15558.318,40626,-1235.022599
15583.362,40627,-1234.982283
15583.414,40628,-1234.920835
15586.335,40629,-1234.679084
15586.428,40630,-1234.356484
15610.323,40631,-1234.771111
15625.325,40632,-1233.799344
15625.377,40633,-1233.757153
15625.412,40634,-1233.779511
15625.446,40635,-1233.577065
15632.254,40636,-1233.864037
15658.327,40637,-1233.461022
15658.421,40638,-1233.634546
15683.632,40639,-1233.571873
15683.684,40640,-1233.186887
15683.720,40641,-1233.393444
15683.753,40642,-1233.137412
15683.787,40643,-1233.093273
15711.411,40644,-1232.902728
15711.462,40645,-1232.559213
15740.878,40646,-1232.677420
15740.932,40647,-1232.397732
15740.973,40648,-1232.682252
15746.259,40649,-1232.550125
15746.298,40650,-1232.182017
15771.355,40651,-1232.586186
15771.417,40652,-1232.198965
15797.418,40653,-1232.250172
15797.705,40654,-1232.675473
15797.747,40655,-1232.727689
15821.365,40656,-1232.969873
15821.417,40657,-1233.183930
15838.581,40658,-1233.347791
15840.871,40659,-1232.623329
15840.983,40660,-1232.607246
15866.759,40661,-1233.087143
15866.851,40662,-1232.528705
15866.909,40663,-1232.743844
15891.826,40664,-1232.740887
15892.071,40665,-1232.050467
15892.111,40666,-1232.694657
15892.154,40667,-1232.015055
15917.446,40668,-1231.912642
15917.505,40669,-1231.838573
15917.543,40670,-1231.388823
15952.641,40671,-1231.646514
15952.708,40672,-1231.691229
15952.744,40673,-1231.480994
15952.779,40674,-1231.345334
15952.812,40675,-1231.137479
15978.347,40676,-1231.495419
15978.389,40677,-1231.314970
15980.293,40678,-1231.710413
15980.329,40679,-1231.481067
16006.330,40680,-1231.270616
16035.406,40681,-1231.707889
16035.459,40682,-1231.713515
16035.495,40683,-1231.586941
16035.529,40684,-1231.343386
16042.662,40685,-1231.148658
16042.713,40686,-1231.432673
16042.749,40687,-1230.760716
16067.309,40688,-1230.392968
16067.358,40689,-1227.015944
16067.393,40690,-1225.220621
16094.264,40691,-1229.554986
16094.313,40692,-1231.629998
16123.368,40693,-1232.118766
16123.419,40694,-1231.846940
16125.250,40695,-1231.409882
16125.287,40696,-1231.468517
16125.322,40697,-1231.050284
16151.307,40698,-1230.441505
16151.355,40699,-1231.105818
16176.554,40700,-1230.670636
16176.604,40701,-1230.574714
16201.278,40702,-1230.538293
16230.448,40703,-1230.394266
16230.494,40704,-1230.779828
16230.526,40705,-1230.339958
16230.557,40706,-1230.608467
16256.402,40707,-1230.289329
16256.454,40708,-1229.880183
16256.489,40709,-1230.240935
16282.356,40710,-1229.988726
16282.398,40711,-1230.387703
16282.430,40712,-1230.027167
16308.331,40713,-1229.435625
16308.383,40714,-1229.780583
16310.222,40715,-1229.519647
16310.257,40716,-1229.844771
16335.341,40717,-1229.774452
16335.377,40718,-1229.709254
16335.407,40719,-1230.295675
16361.418,40720,-1230.184608
16361.465,40721,-1230.481677
16361.497,40722,-1230.401261
16392.555,40723,-1230.280169
16392.615,40724,-1230.999294
16392.650,40725,-1230.707778
16392.684,40726,-1230.922773
16412.314,40727,-1231.061968
16412.364,40728,-1230.679146
16412.399,40729,-1230.964027
16420.253,40730,-1231.041702
16420.289,40731,-1231.153346
16420.321,40732,-1230.933519
16420.354,40733,-1230.927461
16446.290,40734,-1231.173035
16471.402,40735,-1230.486654
16471.453,40736,-1231.076536
16471.487,40737,-1230.872576
16471.520,40738,-1230.847622
16498.493,40739,-1230.751628
16498.552,40740,-1230.593466
16498.595,40741,-1230.949386
16523.325,40742,-1230.793098
16523.387,40743,-1230.838391
16526.223,40744,-1231.456689
16539.317,40745,-1230.757326
16541.321,40746,-1231.829991
16541.359,40747,-1231.827539
16541.395,40748,-1231.559102
16565.337,40749,-1231.805542
16565.385,40750,-1231.585282
16565.419,40751,-1231.671179
16592.010,40752,-1231.523546
16592.103,40753,-1231.003189
16592.146,40754,-1229.415287
16592.185,40755,-1225.464536
16617.434,40756,-1228.159000
16617.492,40757,-1231.916393
16617.526,40758,-1232.674824
16648.361,40759,-1232.931216
16648.421,40760,-1232.478941
16648.456,40761,-1232.162111
16656.244,40762,-1231.422432
16656.282,40763,-1231.629709
16656.317,40764,-1232.122156
16656.351,40765,-1231.393655
16683.401,40766,-1231.887905
16707.340,40767,-1231.794147
16707.389,40768,-1231.215587
16707.424,40769,-1231.578791
16707.458,40770,-1231.635695
16737.695,40771,-1231.236502
16743.322,40772,-1231.082162
16743.365,40773,-1231.594297
16746.353,40774,-1231.394232
16746.398,40775,-1230.705543
16770.538,40776,-1230.861614
16770.587,40777,-1230.906329
16770.619,40778,-1230.860171
16796.333,40779,-1230.106284
16796.384,40780,-1231.337256
16821.465,40781,-1231.225035
16821.514,40782,-1230.919167
16821.546,40783,-1230.933303
16842.022,40784,-1231.353483
16842.071,40785,-1231.066223
16842.106,40786,-1231.092403
16867.396,40787,-1232.108669
16867.475,40788,-1231.826024
16867.510,40789,-1231.743445
16867.544,40790,-1232.017074
16893.047,40791,-1232.144874
16893.095,40792,-1232.065035
16917.437,40793,-1231.965435
16917.490,40794,-1232.236108
16917.525,40795,-1231.980725
16943.362,40796,-1232.013541
16943.433,40797,-1232.270654
16967.317,40798,-1231.570569
16967.367,40799,-1232.262072
16967.400,40800,-1231.956781
16994.736,40801,-1231.324563
16994.787,40802,-1232.368740
17018.641,40803,-1231.772294
17020.698,40804,-1232.029624
17020.811,40805,-1231.952886
17045.992,40806,-1231.618530
17046.052,40807,-1231.691157
17046.094,40808,-1231.445943
17051.303,40809,-1231.504650
17051.353,40810,-1232.378404
17051.388,40811,-1231.869081
17051.422,40812,-1232.207476
17077.415,40813,-1232.544861
17077.466,40814,-1232.385616
17077.501,40815,-1232.477138
17103.304,40816,-1232.279741
17103.355,40817,-1232.227309
17106.237,40818,-1232.034672
17106.272,40819,-1232.456944
17130.386,40820,-1231.324995
17148.721,40821,-1229.390765
17148.760,40822,-1226.301219
17148.794,40823,-1228.907118
17148.828,40824,-1233.071637
17173.859,40825,-1233.016824
17173.951,40826,-1233.787588
17174.017,40827,-1233.118877
17201.354,40828,-1232.258321
17201.402,40829,-1233.096303
17233.335,40830,-1232.379918
17235.232,40831,-1232.088980
17235.266,40832,-1232.140547
17241.408,40833,-1232.083354
17241.452,40834,-1232.255941
17263.281,40835,-1232.243392
17265.237,40836,-1232.105784
17265.274,40837,-1232.239498
17290.901,40838,-1231.828765
17292.527,40839,-1232.001713
17315.395,40840,-1231.539557
17315.435,40841,-1231.563285
17315.466,40842,-1231.713442
17332.371,40843,-1231.212918
17340.582,40844,-1231.330188
17341.439,40845,-1231.597110
17341.481,40846,-1231.131926
17341.520,40847,-1231.307902
17365.417,40848,-1231.313600
17365.464,40849,-1231.565954
17365.498,40850,-1231.448540
17365.530,40851,-1230.961142
17395.368,40852,-1231.507175
17395.416,40853,-1231.786790
17395.451,40854,-1232.232069
17426.523,40855,-1232.072392
17426.571,40856,-1232.223847
17426.605,40857,-1232.215986
17452.697,40858,-1231.757220
17452.761,40859,-1232.214039
17452.810,40860,-1232.126411
17452.845,40861,-1232.052126
17479.550,40862,-1232.110256
17479.598,40863,-1231.943510
17479.629,40864,-1232.233151
17505.326,40865,-1231.789603
17505.377,40866,-1231.712793
17505.413,40867,-1231.995366
17520.482,40868,-1231.362643
17520.520,40869,-1231.946900
17545.368,40870,-1231.633892
17545.417,40871,-1231.546841
17570.457,40872,-1231.438154
17570.504,40873,-1231.663318
17570.538,40874,-1231.534509
17596.380,40875,-1231.110217
17596.428,40876,-1231.441544
17616.377,40877,-1231.915383
17616.426,40878,-1231.501044
17616.461,40879,-1231.768038
17622.187,40880,-1231.831866
17622.221,40881,-1231.815062
17622.253,40882,-1231.775900
17622.286,40883,-1232.038495
17648.472,40884,-1232.306499
17677.412,40885,-1231.859705
17677.464,40886,-1232.035538
17703.347,40887,-1231.734069
17703.409,40888,-1231.333145
17728.325,40889,-1231.097596
17731.221,40890,-1228.704889
17731.256,40891,-1226.225852
17736.345,40892,-1229.765870
17736.390,40893,-1232.538874
17736.425,40894,-1233.209533
17762.653,40895,-1232.991366
17762.775,40896,-1232.093884
17762.814,40897,-1232.007987
17762.849,40898,-1231.824942
17792.333,40899,-1232.103765
17792.552,40900,-1232.182666
17814.938,40901,-1231.689931
17815.109,40902,-1231.961108
17815.206,40903,-1231.947116
17840.604,40904,-1231.677093
17840.685,40905,-1231.714236
17840.726,40906,-1231.536817
17866.352,40907,-1231.870235
17866.607,40908,-1231.482365
17866.650,40909,-1231.570425
17866.685,40910,-1231.670097
17894.019,40911,-1231.318576
17894.139,40912,-1231.482797
17894.188,40913,-1231.253018
17918.320,40914,-1231.485322
17918.370,40915,-1231.976398
17918.406,40916,-1231.377428
17948.704,40917,-1231.696422
17950.508,40918,-1231.777198
17950.546,40919,-1231.939904
17950.582,40920,-1232.216419
17953.244,40921,-1232.107876
17977.365,40922,-1232.558492
17977.417,40923,-1232.308229
18003.341,40924,-1232.493149
18003.393,40925,-1232.886284
18003.428,40926,-1232.449948
18003.462,40927,-1232.813081
18029.357,40928,-1232.800027
18044.296,40929,-1232.917225
18044.348,40930,-1233.007809
18044.394,40931,-1232.582724
18044.430,40932,-1233.035720
18047.208,40933,-1232.681026
18051.228,40934,-1232.708144
18051.266,40935,-1232.900637
18076.403,40936,-1232.833563
18076.453,40937,-1233.222732
18101.309,40938,-1232.803921
18101.360,40939,-1232.972325
18101.395,40940,-1232.993529
18132.391,40941,-1232.630541
18132.479,40942,-1233.397987
18136.318,40943,-1232.535196
18136.365,40944,-1232.495674
18136.400,40945,-1232.821519
18162.722,40946,-1232.448506
18162.803,40947,-1233.243359
18162.863,40948,-1233.078849
18188.742,40949,-1233.191503
18190.761,40950,-1233.366975
18213.412,40951,-1232.596139
18213.465,40952,-1233.143903
18213.499,40953,-1233.519945
18232.511,40954,-1233.815932
18232.590,40955,-1233.908825
18243.110,40956,-1233.308412
18243.165,40957,-1232.884770
18291.964,40958,-1229.685094
18292.021,40959,-1228.372552
18292.057,40960,-1232.641792
18292.092,40961,-1234.124901
18292.126,40962,-1234.489692
18316.348,40963,-1234.833496
18316.401,40964,-1234.085306
18339.112,40965,-1234.008425
18339.174,40966,-1232.965185
18339.214,40967,-1233.797613
18342.308,40968,-1233.366903
18342.349,40969,-1233.413998
18367.372,40970,-1233.855238
18393.616,40971,-1233.336972
18393.679,40972,-1233.416667
18393.741,40973,-1233.572738
18393.811,40974,-1233.702773
18419.317,40975,-1233.535379
18435.300,40976,-1233.044159
18435.354,40977,-1233.648394
18435.390,40978,-1233.302787
18435.425,40979,-1233.240329
18440.898,40980,-1233.381832
18463.266,40981,-1232.973191
18463.311,40982,-1233.243070
18463.346,40983,-1233.151908
18463.380,40984,-1233.279564
18490.954,40985,-1233.407075
18491.009,40986,-1233.308340
18513.335,40987,-1233.792132
18515.267,40988,-1233.818601
18515.311,40989,-1234.164640
18544.160,40990,-1234.211880
18544.213,40991,-1233.991116
18544.252,40992,-1234.306864
18548.546,40993,-1234.547895
18548.590,40994,-1234.365427
18548.629,40995,-1234.695095
18548.667,40996,-1234.193489
18575.318,40997,-1234.472383
18575.370,40998,-1234.903166
18575.405,40999,-1234.597442
18602.339,41000,-1235.007526
18602.386,41001,-1234.659178
18626.428,41002,-1234.767866
18626.477,41003,-1234.851166
18626.512,41004,-1234.487240
18645.301,41005,-1234.696104
18645.351,41006,-1234.656438
18652.258,41007,-1234.312273
18652.295,41008,-1234.593187
18652.329,41009,-1234.895377
18677.397,41010,-1235.063348
18677.450,41011,-1234.755316
18677.492,41012,-1234.933096
18677.525,41013,-1235.334453
18677.559,41014,-1234.567728
18705.837,41015,-1235.493698
18705.898,41016,-1235.916763
18705.935,41017,-1236.014560
18705.970,41018,-1235.753047
18724.334,41019,-1235.463118
18724.384,41020,-1236.058338
18724.420,41021,-1235.650274
18731.239,41022,-1235.279641
18731.281,41023,-1233.288074
18731.316,41024,-1230.363614
18757.309,41025,-1233.628704
18757.360,41026,-1236.155125
18782.345,41027,-1236.443251
18782.407,41028,-1237.010055
18782.442,41029,-1236.361249
18808.989,41030,-1236.374303
18809.039,41031,-1235.731483
18809.073,41032,-1235.859282
18809.107,41033,-1235.828342
18835.328,41034,-1235.693042
18835.377,41035,-1235.739704
18835.410,41036,-1235.456194
18850.307,41037,-1236.009151
18850.357,41038,-1235.781607
18850.392,41039,-1235.410469
18876.276,41040,-1235.679916
18876.319,41041,-1235.221222
18876.361,41042,-1235.145927
18876.395,41043,-1235.567478
18902.309,41044,-1235.159991
18902.359,41045,-1235.429654
18902.398,41046,-1234.968796
18927.315,41047,-1234.985889
18927.367,41048,-1234.719183
18952.719,41049,-1234.530730
18952.796,41050,-1234.462575
18952.832,41051,-1235.546995
18959.285,41052,-1235.728381
18959.332,41053,-1235.540000
18983.423,41054,-1235.451795
18983.492,41055,-1235.856181
19009.318,41056,-1235.541009
19009.371,41057,-1235.782833
19009.407,41058,-1235.656765
19035.340,41059,-1235.553342
19035.393,41060,-1235.807499
19061.696,41061,-1235.288367
19061.748,41062,-1235.699388
19061.784,41063,-1235.588538
19070.462,41064,-1235.103231
19070.517,41065,-1235.908685
19070.551,41066,-1235.301061
19098.639,41067,-1235.376067
19098.700,41068,-1235.136479
19122.244,41069,-1235.049789
19122.359,41070,-1235.272933
19122.450,41071,-1234.474114
19146.317,41072,-1234.382592
19146.374,41073,-1234.523373
19146.409,41074,-1234.089129
19146.442,41075,-1235.176435
19163.720,41076,-1234.958844
19163.770,41077,-1235.196845
19163.805,41078,-1234.930860
19191.067,41079,-1235.009329
19191.117,41080,-1235.120324
19191.328,41081,-1234.781569
19191.365,41082,-1234.784958
19217.643,41083,-1234.479235
19242.707,41084,-1235.268390
19242.764,41085,-1234.631123
19242.798,41086,-1234.409277
19242.832,41087,-1233.371807
19257.333,41088,-1230.735689
19281.367,41089,-1228.867595
19281.451,41090,-1233.150249
19281.513,41091,-1235.317432
19281.574,41092,-1234.807532
19307.370,41093,-1234.980192
19332.370,41094,-1234.882250
19332.417,41095,-1234.483851
19332.450,41096,-1233.676016
19332.483,41097,-1234.073551
19343.285,41098,-1234.111775
19343.329,41099,-1233.766962
19343.364,41100,-1233.908464
19368.572,41101,-1233.228069
19368.637,41102,-1232.561232
19370.222,41103,-1233.295575
19370.292,41104,-1233.315192
19370.352,41105,-1233.341444
19395.298,41106,-1232.848060
19395.345,41107,-1232.838468
19420.694,41108,-1232.745791
19420.781,41109,-1232.598519
19420.841,41110,-1232.693864
19442.255,41111,-1232.432423
19442.305,41112,-1231.926706
19447.210,41113,-1232.255220
19447.247,41114,-1232.085734
19447.282,41115,-1232.510747
19473.343,41116,-1232.519546
19473.395,41117,-1232.173723
19498.419,41118,-1232.361527
19498.470,41119,-1232.693864
19498.505,41120,-1232.749902
19525.360,41121,-1232.897752
19525.441,41122,-1232.646264
19551.770,41123,-1232.988625
19551.879,41124,-1232.895444
19551.949,41125,-1233.000741
19578.345,41126,-1232.921985
19578.398,41127,-1232.795555
19603.312,41128,-1232.954439
19603.362,41129,-1232.762884
19603.398,41130,-1232.859527
19603.432,41131,-1232.853108
19603.466,41132,-1232.742113
19628.363,41133,-1232.737137
19628.415,41134,-1232.505699
19647.702,41135,-1232.686507
19647.760,41136,-1232.411436
19647.801,41137,-1232.301522
19652.063,41138,-1232.649148
19652.114,41139,-1232.534691
19676.341,41140,-1232.784881
19676.394,41141,-1232.920470
19701.271,41142,-1232.924509
19701.319,41143,-1233.127820
19701.355,41144,-1233.037596
19733.331,41145,-1233.327669
19733.389,41146,-1233.190133
19738.206,41147,-1233.010045
19738.241,41148,-1233.328895
19738.275,41149,-1233.158111
19763.368,41150,-1233.028652
19763.425,41151,-1232.089701
19765.225,41152,-1229.414638
19791.852,41153,-1228.563314
19791.924,41154,-1232.128430
19816.347,41155,-1234.123531
19816.445,41156,-1234.220318
19816.501,41157,-1234.234887
19816.554,41158,-1234.017945
19816.610,41159,-1233.498669
19844.312,41160,-1233.520738
19844.362,41161,-1233.563290
19844.397,41162,-1233.363297
19844.431,41163,-1233.525066
19870.409,41164,-1233.298459
19870.463,41165,-1233.467873
19870.508,41166,-1233.122483
19896.311,41167,-1233.077839
19896.360,41168,-1233.312956
19896.395,41169,-1232.986101
19922.291,41170,-1233.257422
19922.341,41171,-1232.984947
19922.376,41172,-1232.763173
19922.410,41173,-1232.972686
19946.306,41174,-1232.828948
19963.419,41175,-1232.954584
19963.472,41176,-1232.886933
19990.840,41177,-1232.900853
19990.897,41178,-1233.080868
19990.937,41179,-1232.964753
20016.336,41180,-1233.074089
20016.387,41181,-1233.315192
20043.654,41182,-1233.053895
20043.724,41183,-1233.467513
20043.764,41184,-1233.535956
20044.834,41185,-1233.318654
20067.369,41186,-1233.824226
20067.423,41187,-1233.631806
20067.458,41188,-1233.939909
20076.088,41189,-1233.907887
20076.204,41190,-1233.882645
20076.274,41191,-1233.975754
20100.307,41192,-1233.583917
20100.356,41193,-1234.075282
20100.392,41194,-1234.056241
20100.425,41195,-1233.923826
20126.486,41196,-1233.966666
20153.750,41197,-1233.602092
20153.843,41198,-1233.904858
20153.906,41199,-1233.533720
20153.968,41200,-1233.583917
20173.322,41201,-1233.620122
20173.373,41202,-1233.357239
20173.407,41203,-1233.462536
20179.353,41204,-1233.853291
20179.395,41205,-1233.828337
20203.303,41206,-1234.196879
20228.332,41207,-1234.099586
20228.382,41208,-1234.285228
20230.219,41209,-1234.048885
20230.256,41210,-1233.902262
20258.315,41211,-1234.236113
20266.254,41212,-1234.047803
20266.310,41213,-1234.211375
20266.344,41214,-1233.771145
20266.378,41215,-1231.800854
20292.088,41216,-1229.147066
20292.145,41217,-1230.526969
20292.642,41218,-1233.881491
20317.441,41219,-1234.575373
20317.500,41220,-1234.508011
20346.465,41221,-1234.508588
20346.696,41222,-1234.386991
20346.735,41223,-1234.287535
20355.097,41224,-1234.249527
20356.056,41225,-1234.213250
20377.944,41226,-1234.293738
20377.999,41227,-1234.088191
20378.038,41228,-1233.991043
20404.114,41229,-1233.856537
20404.197,41230,-1233.469171
20429.291,41231,-1233.830429
20429.342,41232,-1234.110477
20429.378,41233,-1234.169040
20453.665,41234,-1234.070882
20456.470,41235,-1234.071892
20478.419,41236,-1234.151009
20478.468,41237,-1233.924908
20478.503,41238,-1233.381399
20478.537,41239,-1233.766457
20478.570,41240,-1233.994577
20503.342,41241,-1234.102832
20531.406,41242,-1233.261533
20531.479,41243,-1233.724770
20531.513,41244,-1235.173910
20531.546,41245,-1235.011492
20556.315,41246,-1234.608260
20556.364,41247,-1235.238243
20567.334,41248,-1235.111886
20567.386,41249,-1235.052313
20567.424,41250,-1235.370081
20597.291,41251,-1235.215236
20597.341,41252,-1236.163563
20597.376,41253,-1236.066055
20597.410,41254,-1235.755138
20622.298,41255,-1235.607433
20622.348,41256,-1235.574257
20622.383,41257,-1235.359263
20651.974,41258,-1235.098038
20652.070,41259,-1235.074743
20652.152,41260,-1235.081450
20657.317,41261,-1234.809408
20657.374,41262,-1234.507002
20681.451,41263,-1234.396079
20681.500,41264,-1234.096846
20681.533,41265,-1234.650019
20681.566,41266,-1235.247907
20681.598,41267,-1235.122776
20707.299,41268,-1235.375490
20707.378,41269,-1235.470547
20742.875,41270,-1235.559473
20743.889,41271,-1235.557814
20743.929,41272,-1235.753840
20743.963,41273,-1235.771871
20743.998,41274,-1235.531994
20751.230,41275,-1235.753263
20751.268,41276,-1235.796176
20751.302,41277,-1235.349166
20776.328,41278,-1233.065795
20776.378,41279,-1230.914191
20800.306,41280,-1233.386592
20800.353,41281,-1235.706529
20800.387,41282,-1235.840386
20826.342,41283,-1236.274847
20826.423,41284,-1235.377798
20836.318,41285,-1235.980230
20836.365,41286,-1235.898805
20836.399,41287,-1235.767255
20862.312,41288,-1235.407152
20862.363,41289,-1235.249133
20862.398,41290,-1235.285410
20862.432,41291,-1235.393521
20888.511,41292,-1235.304090
20916.340,41293,-1235.064213
20916.389,41294,-1234.985384
20916.423,41295,-1235.006300
20916.456,41296,-1234.987187
20925.487,41297,-1234.854051
20925.651,41298,-1234.675261
20952.309,41299,-1234.633864
20952.377,41300,-1234.668193
20952.414,41301,-1234.553448
20952.448,41302,-1234.270947
20952.482,41303,-1234.340617
20977.527,41304,-1234.515873
21003.339,41305,-1234.870711
21003.384,41306,-1234.825419
21003.418,41307,-1234.827654
21003.451,41308,-1234.840204
21031.417,41309,-1234.816980
21038.103,41310,-1234.988846
21038.174,41311,-1235.022166
21038.213,41312,-1235.105755
21038.248,41313,-1234.754018
21063.440,41314,-1234.705192
21065.362,41315,-1235.506319
21065.406,41316,-1235.518147
21092.571,41317,-1235.385227
21092.619,41318,-1235.257139
21115.381,41319,-1235.261610
21115.424,41320,-1235.161001
21115.457,41321,-1235.098183
21132.471,41322,-1234.859676
21132.511,41323,-1234.881890
21140.013,41324,-1234.817125
21140.774,41325,-1234.680093
21140.815,41326,-1234.645980
21142.296,41327,-1234.728271
21142.330,41328,-1234.843521
21166.714,41329,-1234.879438
21166.762,41330,-1235.200956
21166.794,41331,-1235.219347
21191.600,41332,-1235.299258
21191.648,41333,-1235.380539
21216.450,41334,-1235.328683
21216.498,41335,-1235.255480
21216.530,41336,-1235.341377
21247.323,41337,-1235.385587
21247.374,41338,-1235.349094
21271.483,41339,-1234.902589
21271.533,41340,-1232.480240
21271.567,41341,-1229.737093
21297.451,41342,-1232.936842
21297.506,41343,-1235.573176
21322.533,41344,-1236.145677
21322.581,41345,-1236.243907
21322.613,41346,-1235.862960
21353.336,41347,-1235.540865
21353.385,41348,-1235.161866
21378.444,41349,-1235.077628
21378.485,41350,-1235.578368
21380.417,41351,-1235.556588
21406.374,41352,-1235.416672
21406.423,41353,-1235.353493
21430.490,41354,-1235.284545
21430.534,41355,-1235.183647
21453.296,41356,-1235.011637
21453.373,41357,-1234.985889
21453.412,41358,-1234.886866
21460.386,41359,-1234.805585
21460.431,41360,-1234.856936
21485.584,41361,-1234.722645
21485.632,41362,-1234.684277
21485.666,41363,-1234.505920
21510.346,41364,-1234.568810
21510.397,41365,-1234.604222
21542.185,41366,-1234.637109
21542.254,41367,-1234.822822
21542.294,41368,-1234.861984
21547.271,41369,-1234.947665
21547.316,41370,-1235.106404
21572.437,41371,-1235.088518
21572.489,41372,-1235.131503
21572.523,41373,-1235.067603
21598.328,41374,-1235.142033
21598.377,41375,-1235.245527
21628.377,41376,-1235.364239
21628.429,41377,-1235.343108
21631.349,41378,-1235.368999
21636.976,41379,-1235.284328
21637.022,41380,-1235.444583
21637.061,41381,-1235.200956
21637.098,41382,-1235.212207
21662.562,41383,-1235.006372
21688.698,41384,-1234.986250
21688.990,41385,-1234.920186
21689.029,41386,-1234.711539
21689.066,41387,-1234.695455
21714.354,41388,-1234.729713
21714.403,41389,-1234.798734
21744.307,41390,-1234.974205
21744.359,41391,-1235.076330
21744.394,41392,-1235.238171
21748.237,41393,-1235.342603
21748.272,41394,-1235.325798
21773.322,41395,-1235.359191
21798.367,41396,-1235.440255
21798.418,41397,-1235.395540
21801.055,41398,-1235.444078
21801.097,41399,-1235.556948
21825.451,41400,-1235.398786
21851.834,41401,-1233.892453
21851.955,41402,-1230.551707
21851.992,41403,-1230.774996
21852.100,41404,-1234.601986
21858.537,41405,-1236.123680
21883.948,41406,-1236.507295
21883.992,41407,-1235.830433
21884.027,41408,-1235.473792
21884.061,41409,-1235.372605
21909.468,41410,-1235.278487
21933.346,41411,-1235.262980
21933.396,41412,-1235.251080
21952.338,41413,-1235.242570
21952.390,41414,-1235.214659
21952.426,41415,-1235.175136
21952.460,41416,-1235.153788
21952.493,41417,-1235.077989
21957.379,41418,-1235.004785
21957.420,41419,-1234.889246
21957.456,41420,-1234.845901
21957.489,41421,-1234.790440
21984.631,41422,-1234.623839
21984.679,41423,-1234.578402
21984.711,41424,-1234.643456
22011.333,41425,-1234.626219
22011.385,41426,-1234.531523
22041.691,41427,-1234.583595
22041.740,41428,-1234.727910
22041.777,41429,-1234.747888
22048.544,41430,-1234.835660
22048.593,41431,-1234.817125
22048.628,41432,-1234.824048
22073.840,41433,-1234.883332
22073.977,41434,-1234.819505
22075.239,41435,-1234.782362
22075.281,41436,-1234.988413
22100.305,41437,-1235.055847
22125.592,41438,-1235.143691
22125.654,41439,-1235.020724
22125.695,41440,-1234.972691
22125.729,41441,-1234.899127
22155.434,41442,-1234.812292
22155.486,41443,-1234.621459
22155.521,41444,-1234.631411
22181.489,41445,-1234.864725
22181.540,41446,-1234.799455
22181.575,41447,-1234.574291
22181.606,41448,-1234.614679
22181.638,41449,-1234.576166
22207.291,41450,-1234.795344
22207.340,41451,-1234.717957
22207.375,41452,-1234.891987
22207.408,41453,-1235.118449
22233.432,41454,-1235.165472
22235.317,41455,-1235.110876
22235.358,41456,-1235.258437
22257.348,41457,-1235.293849
22257.392,41458,-1235.111597
22257.497,41459,-1235.189056
22263.342,41460,-1235.679050
22263.381,41461,-1235.389265
22266.438,41462,-1232.809763
22266.476,41463,-1229.469955
22283.704,41464,-1232.119559
22306.462,41465,-1235.522474
22306.511,41466,-1236.261216
22306.544,41467,-1235.954050
22306.576,41468,-1235.428644
22329.641,41469,-1235.200812
22361.294,41470,-1235.216751
22361.363,41471,-1235.151408
22361.400,41472,-1235.128546
22361.434,41473,-1235.084479
22386.272,41474,-1235.076402
22386.319,41475,-1234.976946
22386.355,41476,-1234.948602
22398.273,41477,-1234.917590
22398.318,41478,-1234.858450
22418.812,41479,-1234.843882
22418.905,41480,-1234.725602
22418.951,41481,-1234.654490
22438.848,41482,-1234.644754
22438.904,41483,-1234.557487
22442.795,41484,-1234.545803
22442.834,41485,-1234.536644
22449.271,41486,-1234.447285
22452.253,41487,-1234.474547
22452.293,41488,-1234.625642
22458.292,41489,-1234.698557
22458.337,41490,-1234.831044
22458.372,41491,-1234.858306
22463.287,41492,-1234.837823
22463.320,41493,-1234.924081
22467.122,41494,-1234.952281
22467.213,41495,-1235.031542
22467.247,41496,-1235.007670
22472.309,41497,-1235.033634
22472.359,41498,-1235.065728
22475.256,41499,-1235.020508
22475.294,41500,-1235.089023
22475.327,41501,-1235.079142
22475.360,41502,-1235.074022
22475.392,41503,-1234.999592
22481.246,41504,-1234.866023
22481.280,41505,-1234.872875
22499.831,41506,-1234.758273
22499.903,41507,-1234.831982
22508.324,41508,-1234.676920
22523.321,41509,-1234.658962
22523.372,41510,-1234.803277
22536.310,41511,-1235.056208
22536.356,41512,-1235.069983
22549.738,41513,-1235.129916
22569.469,41514,-1235.176507
22569.539,41515,-1235.269760
22577.360,41516,-1235.250359
22577.414,41517,-1235.363590
22588.434,41518,-1235.363662
22603.707,41519,-1235.423451
22603.784,41520,-1235.639528
22624.479,41521,-1235.860869
22624.701,41522,-1235.140806
22624.767,41523,-1232.089917
22648.294,41524,-1230.606952
22648.345,41525,-1234.264240
22655.310,41526,-1235.919504
22668.308,41527,-1236.350430
22668.371,41528,-1235.958594
22682.316,41529,-1235.481509
22682.359,41530,-1235.340006
22696.701,41531,-1235.377149
22696.752,41532,-1235.366187
22710.335,41533,-1235.290819
22710.392,41534,-1235.267452
22723.314,41535,-1235.239974
22737.396,41536,-1235.151625
22737.488,41537,-1235.099841
22751.531,41538,-1235.118232
22751.635,41539,-1235.042216
22760.334,41540,-1235.055703
22783.651,41541,-1234.951127
22783.701,41542,-1234.920980
22792.196,41543,-1234.794623
22792.251,41544,-1234.779044
22803.362,41545,-1234.760581
22817.834,41546,-1234.733463
22817.888,41547,-1234.774212
22831.417,41548,-1234.854700
22831.466,41549,-1234.891915
22841.539,41550,-1234.980552
22864.324,41551,-1235.025917
22864.375,41552,-1235.046976
22870.235,41553,-1234.995265
22870.269,41554,-1235.026422
22898.407,41555,-1235.070560
22898.457,41556,-1235.039259
22898.504,41557,-1234.998006
22912.317,41558,-1235.005723
22912.361,41559,-1235.001035
22926.606,41560,-1235.006227
22926.656,41561,-1234.854411
22936.305,41562,-1234.834578
22958.316,41563,-1234.698268
22958.365,41564,-1234.657519
22982.698,41565,-1234.656798
22982.751,41566,-1234.535562
22982.802,41567,-1234.464233
22990.861,41568,-1234.310110
22990.911,41569,-1234.198682
23014.110,41570,-1234.294748
23014.171,41571,-1234.265250
23014.207,41572,-1234.395429
23040.780,41573,-1234.465892
23041.095,41574,-1234.575733
23045.243,41575,-1234.652327
23045.281,41576,-1234.543711
23058.335,41577,-1234.525609
23072.336,41578,-1234.333910
23072.391,41579,-1234.348406
23088.138,41580,-1234.635955
23088.191,41581,-1234.654707
23099.098,41582,-1233.965657
23119.298,41583,-1231.370937
23127.287,41584,-1230.253196
23127.345,41585,-1233.252229
23127.381,41586,-1234.030782
23152.285,41587,-1234.390020
23152.336,41588,-1234.363984
23152.372,41589,-1233.775544
23167.327,41590,-1233.407363
23167.375,41591,-1233.240690
23181.311,41592,-1233.149168
23181.362,41593,-1233.079210
23191.002,41594,-1232.962012
23213.671,41595,-1232.864792
23213.760,41596,-1232.689537
23220.237,41597,-1232.532095
23220.278,41598,-1232.466104
23233.263,41599,-1232.518392
23250.645,41600,-1232.402637
23250.701,41601,-1232.251181
23261.264,41602,-1232.055948
23261.306,41603,-1231.884587
23269.274,41604,-1231.776260
23293.385,41605,-1231.720222
23293.440,41606,-1231.615069
23302.237,41607,-1231.600500
23302.280,41608,-1231.594947
23311.405,41609,-1231.560545
23328.376,41610,-1231.592783
23328.438,41611,-1231.522176
23342.887,41612,-1231.526143
23342.941,41613,-1231.486476
23368.402,41614,-1231.402526
23368.450,41615,-1231.463613
23368.484,41616,-1231.365167
23383.778,41617,-1231.351536
23383.842,41618,-1231.307398
23397.408,41619,-1231.225972
23397.469,41620,-1231.224963
23407.320,41621,-1231.124281
23421.382,41622,-1231.068098
23421.432,41623,-1230.967200
23444.529,41624,-1230.751845
23444.577,41625,-1230.795334
23444.613,41626,-1230.691190
23468.393,41627,-1230.510598
23468.459,41628,-1230.369600
23476.349,41629,-1230.348108
23476.396,41630,-1230.485355
23488.496,41631,-1230.515358
23503.373,41632,-1230.570819
23503.448,41633,-1230.647845
23516.308,41634,-1230.726602
23516.358,41635,-1230.753431
23526.289,41636,-1230.696239
23548.360,41637,-1230.783867
23548.413,41638,-1230.737925
23556.384,41639,-1230.777015
23556.450,41640,-1231.209456
23583.256,41641,-1231.226405
23583.312,41642,-1229.747623
23583.348,41643,-1226.625406
23601.067,41644,-1228.022762
23601.135,41645,-1230.841203
23621.322,41646,-1231.416446
23621.374,41647,-1231.676156
23621.411,41648,-1231.176425
23644.027,41649,-1230.786824
23644.089,41650,-1230.675396
23651.245,41651,-1230.658087
23651.287,41652,-1230.713620
23663.326,41653,-1230.609909
23677.314,41654,-1230.524878
23677.363,41655,-1230.534759
23691.453,41656,-1230.502809
23692.195,41657,-1230.552428
23700.430,41658,-1230.437178
23724.345,41659,-1230.368879
23724.399,41660,-1230.603563
23731.430,41661,-1230.372341
23731.524,41662,-1230.321639
23754.317,41663,-1230.419220
23754.367,41664,-1230.328779
23754.402,41665,-1230.335270
23771.740,41666,-1230.483264
23771.791,41667,-1230.528989
23780.508,41668,-1230.623757
23804.342,41669,-1230.585100
23804.395,41670,-1230.736411
23811.321,41671,-1230.874956
23811.387,41672,-1230.891689
23836.308,41673,-1230.992659
23836.360,41674,-1230.793170
23836.396,41675,-1230.930851
23850.329,41676,-1230.902795
23850.379,41677,-1230.836948
23876.370,41678,-1230.987899
23876.470,41679,-1230.751845
23876.533,41680,-1231.012276
23891.854,41681,-1230.991866
23891.904,41682,-1230.906185
23914.090,41683,-1231.086056
23914.201,41684,-1230.870413
23914.268,41685,-1231.101635
23940.924,41686,-1231.044226
23941.217,41687,-1230.912748
23945.263,41688,-1230.974484
23945.310,41689,-1230.901858
23958.236,41690,-1231.119304
23972.330,41691,-1231.286482
23972.380,41692,-1231.337472
23986.245,41693,-1231.564583
23986.280,41694,-1231.555640
23996.312,41695,-1231.837492
24019.422,41696,-1231.855306
24019.474,41697,-1231.760971
24040.888,41698,-1231.985052
24040.940,41699,-1231.962839
24040.978,41700,-1232.591812
24053.355,41701,-1232.265966
24053.404,41702,-1230.030196
24068.931,41703,-1227.709394
24068.982,41704,-1230.326543
24081.339,41705,-1232.625348
24081.380,41706,-1233.009973
24090.507,41707,-1233.128541
24113.301,41708,-1232.835222
24113.350,41709,-1232.281977
24120.510,41710,-1232.449732
24120.580,41711,-1232.314143
24133.332,41712,-1232.212380
24147.446,41713,-1232.326548
24147.499,41714,-1232.215625
24161.331,41715,-1232.400545
24161.384,41716,-1232.234305
24171.953,41717,-1232.231636
24194.712,41718,-1232.396867
24194.767,41719,-1232.099798
24201.240,41720,-1232.326548
24201.283,41721,-1232.168241
24210.289,41722,-1232.112347
24233.972,41723,-1232.236685
24234.022,41724,-1231.949785
24241.970,41725,-1232.243681
24242.037,41726,-1232.179060
24253.827,41727,-1232.175598
24268.309,41728,-1232.381433
24268.358,41729,-1232.255364
24281.301,41730,-1232.538225
24281.347,41731,-1232.485000
24305.324,41732,-1232.458387
24305.441,41733,-1232.554741
24305.477,41734,-1232.443385
24320.637,41735,-1232.769015
24320.692,41736,-1232.657226
24343.336,41737,-1232.675761
24343.483,41738,-1232.850440
24343.858,41739,-1232.700355
24369.433,41740,-1232.845896
24369.485,41741,-1232.779472
24375.544,41742,-1232.701076
24375.603,41743,-1232.558924
24388.623,41744,-1232.473749
24402.357,41745,-1232.848925
24402.406,41746,-1232.607102
24416.374,41747,-1232.534114
24416.425,41748,-1232.693575
24425.443,41749,-1232.695451
24448.303,41750,-1232.962445
24448.352,41751,-1233.090316
24455.312,41752,-1233.185950
24455.352,41753,-1233.492683
24482.373,41754,-1233.340578
24482.466,41755,-1233.526292
24482.502,41756,-1233.515401
24496.376,41757,-1233.576488
24496.439,41758,-1233.733497
24520.334,41759,-1233.967027
24520.385,41760,-1233.969118
24520.420,41761,-1233.153423
24535.237,41762,-1229.832005
24535.270,41763,-1229.542581
24560.355,41764,-1233.136330
24560.404,41765,-1234.424927
24560.439,41766,-1234.609991
24575.331,41767,-1234.044702
24575.377,41768,-1233.753114
24598.294,41769,-1233.559828
24598.344,41770,-1233.664765
24598.379,41771,-1233.794800
24623.352,41772,-1233.409238
24623.404,41773,-1233.443424
24633.313,41774,-1233.338559
24633.363,41775,-1233.349594
24642.944,41776,-1233.395030
24656.357,41777,-1233.251003
24656.410,41778,-1233.368345
24671.300,41779,-1233.183425
24671.357,41780,-1233.122411
24684.398,41781,-1233.133373
24697.295,41782,-1233.013435
24697.347,41783,-1233.025046
24711.311,41784,-1233.001895
24711.357,41785,-1233.044880
24736.336,41786,-1233.210760
24736.385,41787,-1233.205206
24736.419,41788,-1233.384428
24750.300,41789,-1233.448833
24750.355,41790,-1233.585864
24775.475,41791,-1233.603101
24775.542,41792,-1233.561631
24775.594,41793,-1233.626108
24791.990,41794,-1233.516483
24792.653,41795,-1233.450708
24813.921,41796,-1233.502492
24814.074,41797,-1233.404767
24814.160,41798,-1233.415657
24838.340,41799,-1233.422869
24838.394,41800,-1233.418614
24850.848,41801,-1233.493981
24852.718,41802,-1233.407579
24857.286,41803,-1233.448977
24870.243,41804,-1233.462103
24870.279,41805,-1233.253239
24893.808,41806,-1233.253816
24894.001,41807,-1233.219270
24894.082,41808,-1233.423158
24921.369,41809,-1233.628488
24921.438,41810,-1233.743378
24952.358,41811,-1233.960464
24952.535,41812,-1233.954189
24952.605,41813,-1234.038932
24952.669,41814,-1234.128363
24952.729,41815,-1234.136801
24966.311,41816,-1234.298931
24966.361,41817,-1234.239070
24992.167,41818,-1234.656005
24993.025,41819,-1234.730434
24994.058,41820,-1232.848781
25015.323,41821,-1229.766303
25015.374,41822,-1231.759384
25021.013,41823,-1234.285011
25021.060,41824,-1235.010555
25033.335,41825,-1235.073733
25047.288,41826,-1234.709447
25047.339,41827,-1234.326842
25062.243,41828,-1234.215847
25062.284,41829,-1234.187286
25070.336,41830,-1233.943876
25093.269,41831,-1233.980586
25093.318,41832,-1234.159159
25101.277,41833,-1234.095548
25101.323,41834,-1234.060064
25110.394,41835,-1233.970561
25133.314,41836,-1233.899233
25133.364,41837,-1234.069151
25140.731,41838,-1233.730756
25140.780,41839,-1233.652793
25153.346,41840,-1233.700754
25168.337,41841,-1233.542591
25168.387,41842,-1233.436212
25181.285,41843,-1232.302532
25181.326,41844,-1233.442198
25205.319,41845,-1233.893968
25205.370,41846,-1234.159520
25205.405,41847,-1234.288617
25221.406,41848,-1233.983182
25221.454,41849,-1234.070449
25247.557,41850,-1233.974600
25247.629,41851,-1234.012896
25247.670,41852,-1234.086316
25260.304,41853,-1233.732055
25260.354,41854,-1234.184546
25284.338,41855,-1234.055376
25284.389,41856,-1233.926783
25284.423,41857,-1234.098793
25308.302,41858,-1233.972003
25308.354,41859,-1233.877596
25316.303,41860,-1233.978422
25316.352,41861,-1233.861729
25328.255,41862,-1233.840237
25344.065,41863,-1233.838795
25344.118,41864,-1233.519656
25356.314,41865,-1233.657409
25356.362,41866,-1233.503862
25364.258,41867,-1233.796820
25396.455,41868,-1233.748138
25396.572,41869,-1233.908031
25396.614,41870,-1234.146033
25396.653,41871,-1234.103120
25420.355,41872,-1234.234310
25420.408,41873,-1234.190316
25420.443,41874,-1234.138965
25435.289,41875,-1234.423485
25435.337,41876,-1234.266260
25460.337,41877,-1234.889967
25460.387,41878,-1234.352084
25460.422,41879,-1231.938678
25475.244,41880,-1230.211726
25475.281,41881,-1232.996486
25499.321,41882,-1234.516089
25499.372,41883,-1234.768370
25499.408,41884,-1235.034932
25523.326,41885,-1234.651750
25523.377,41886,-1234.114011
25531.238,41887,-1234.302897
25531.277,41888,-1233.952963
25543.306,41889,-1233.906445
25556.336,41890,-1234.011887
25556.386,41891,-1233.760903
25570.327,41892,-1233.910051
25570.377,41893,-1233.649475
25583.370,41894,-1233.655966
25597.290,41895,-1233.682435
25597.339,41896,-1233.422076
25611.545,41897,-1233.590336
25611.596,41898,-1233.409455
25620.400,41899,-1233.320024
25644.285,41900,-1233.438952
25644.334,41901,-1233.182055
25650.320,41902,-1233.355652
25650.355,41903,-1233.191287
25675.509,41904,-1233.265644
25675.560,41905,-1233.580383
25675.595,41906,-1233.334015
25692.175,41907,-1233.641254
25692.223,41908,-1233.575190
25713.498,41909,-1233.639234
25713.548,41910,-1233.707173
25716.357,41911,-1233.589254
25742.437,41912,-1233.720732
25742.485,41913,-1233.566391
25747.261,41914,-1233.598630
25747.310,41915,-1233.744171
25756.395,41916,-1233.493188
25770.433,41917,-1233.632743
25770.468,41918,-1233.492034
25793.655,41919,-1233.333583
25793.707,41920,-1233.447391
25793.747,41921,-1233.224318
25818.780,41922,-1233.264057
25818.831,41923,-1232.913691
25825.320,41924,-1233.013579
25841.151,41925,-1233.100774
25841.201,41926,-1233.148374
25852.266,41927,-1233.402819
25852.310,41928,-1233.395607
25866.282,41929,-1233.437582
25866.323,41930,-1233.619617
25891.693,41931,-1233.471479
25891.739,41932,-1233.612910
25891.777,41933,-1233.473138
25905.266,41934,-1233.493260
25905.311,41935,-1233.931399
25930.330,41936,-1233.614280
25930.379,41937,-1231.934495
25930.412,41938,-1228.678781
25946.799,41939,-1230.648134
25946.841,41940,-1233.344401
25968.260,41941,-1233.718352
25968.299,41942,-1234.204091
25968.332,41943,-1233.784199
25993.283,41944,-1233.446742
25993.331,41945,-1233.284396
26001.255,41946,-1233.104813
26001.291,41947,-1233.184507
26009.315,41948,-1233.086350
26033.469,41949,-1233.036153
26033.517,41950,-1232.926889
26041.692,41951,-1232.881019
26041.738,41952,-1232.925735
26053.869,41953,-1232.782934
26067.767,41954,-1232.723001
26067.894,41955,-1232.658452
26081.391,41956,-1232.602991
26081.435,41957,-1232.600971
26105.425,41958,-1232.583590
26105.472,41959,-1232.385760
26105.506,41960,-1232.386337
26120.382,41961,-1232.333544
26120.413,41962,-1232.439202
26146.366,41963,-1232.553732
26146.414,41964,-1232.636960
26146.448,41965,-1232.796421
26160.395,41966,-1232.745070
26160.442,41967,-1232.814668
26184.629,41968,-1232.890179
26184.677,41969,-1232.871355
26184.709,41970,-1232.839694
26202.021,41971,-1232.824692
26202.094,41972,-1232.900637
26215.350,41973,-1233.010911
26215.393,41974,-1232.667828
26228.561,41975,-1232.777020
26242.256,41976,-1232.579335
26242.304,41977,-1232.556112
26256.452,41978,-1232.607678
26256.500,41979,-1232.479590
26265.399,41980,-1232.506131
26290.685,41981,-1232.342632
26296.235,41982,-1232.411868
26296.279,41983,-1232.452689
26296.313,41984,-1232.544356
26305.346,41985,-1232.713914
26328.414,41986,-1232.837530
26328.447,41987,-1232.901069
26335.479,41988,-1233.053607
26335.527,41989,-1232.978239
26361.396,41990,-1233.057934
26361.443,41991,-1233.019277
26361.476,41992,-1233.058944
26375.317,41993,-1233.411330
26375.350,41994,-1233.547279
26399.363,41995,-1232.576666
26399.418,41996,-1229.437861
26399.454,41997,-1229.647302
26423.455,41998,-1232.855633
26423.501,41999,-1233.504655
26430.452,42000,-1233.899593
26430.486,42001,-1233.475085
26440.475,42002,-1233.084330
26463.318,42003,-1232.909652
26463.369,42004,-1232.724443
26470.314,42005,-1232.801397
26470.371,42006,-1232.644172
26483.270,42007,-1232.561304
26498.079,42008,-1232.595418
26498.132,42009,-1232.457161
26511.273,42010,-1232.581859
26511.310,42011,-1232.418720
26521.527,42012,-1232.332462
26543.557,42013,-1232.378187
26543.617,42014,-1232.150572
26550.246,42015,-1232.189734
26550.290,42016,-1232.087032
26563.255,42017,-1232.108236
26578.396,42018,-1232.169035
26578.446,42019,-1232.090062
26592.595,42020,-1232.289334
26592.645,42021,-1232.261639
26605.377,42022,-1232.314937
26605.424,42023,-1232.504833
26618.461,42024,-1232.442304
26632.461,42025,-1232.641720
26632.512,42026,-1232.519402
26646.378,42027,-1232.549476
26646.423,42028,-1232.587989
26655.325,42029,-1232.496395
26679.747,42030,-1232.617487
26679.795,42031,-1232.376673
26685.452,42032,-1232.491274
26685.491,42033,-1232.518680
26698.532,42034,-1232.322005
26712.536,42035,-1232.448434
26712.585,42036,-1232.244185
26726.521,42037,-1232.355830
26726.560,42038,-1232.200408
26758.412,42039,-1231.984836
26758.472,42040,-1232.120353
26758.507,42041,-1232.060347
26765.372,42042,-1232.246710
26765.404,42043,-1232.443025
26778.529,42044,-1232.431413
26792.266,42045,-1232.746801
26792.313,42046,-1232.618569
26806.354,42047,-1232.761947
26806.404,42048,-1232.742402
26830.519,42049,-1232.589143
26830.556,42050,-1232.808393
26830.589,42051,-1232.951554
26845.330,42052,-1233.026633
26845.380,42053,-1232.928980
26862.585,42054,-1230.130805
26862.634,42055,-1227.749926
26871.509,42056,-1231.082306
26885.569,42057,-1232.913474
26885.607,42058,-1233.548361
26908.374,42059,-1233.289588
26908.427,42060,-1232.913402
26908.462,42061,-1232.744349
26933.350,42062,-1232.509593
26933.399,42063,-1232.719683
26940.729,42064,-1232.452328
26940.991,42065,-1232.524739
26954.306,42066,-1232.464517
26967.910,42067,-1232.215914
26968.031,42068,-1232.421100
26981.439,42069,-1232.303974
26981.488,42070,-1232.370975
26991.829,42071,-1232.147038
27013.377,42072,-1232.036259
27013.426,42073,-1232.193340
27020.946,42074,-1231.940265
27020.994,42075,-1232.018805
27047.679,42076,-1232.044192
27047.740,42077,-1231.960603
27047.781,42078,-1232.150283
27060.276,42079,-1232.050323
27060.313,42080,-1232.122444
27083.397,42081,-1232.093668
27083.448,42082,-1232.178122
27083.485,42083,-1232.467186
27109.327,42084,-1232.253056
27109.380,42085,-1232.311619
27116.307,42086,-1232.270510
27116.388,42087,-1232.107515
27128.316,42088,-1232.241878
27142.477,42089,-1231.972720
27142.521,42090,-1232.055371
27156.512,42091,-1231.990389
27156.602,42092,-1231.819894
27165.438,42093,-1231.975677
27188.300,42094,-1231.674425
27188.354,42095,-1231.852709
27218.301,42096,-1231.667357
27218.361,42097,-1231.402742
27218.397,42098,-1231.508040
27221.245,42099,-1231.357378
27221.316,42100,-1231.542442
27235.329,42101,-1231.730103
27235.380,42102,-1231.690147
27248.381,42103,-1231.939832
27262.371,42104,-1231.758807
27262.434,42105,-1231.999333
27275.394,42106,-1231.973874
27275.445,42107,-1231.909253
27300.677,42108,-1232.204374
27300.762,42109,-1232.258249
27300.797,42110,-1232.517743
27315.628,42111,-1231.573887
27315.741,42112,-1228.222683
27340.751,42113,-1227.981869
27340.803,42114,-1231.321389
27340.841,42115,-1232.661265
27363.340,42116,-1232.882318
27363.392,42117,-1232.393333
27370.429,42118,-1232.252479
27370.506,42119,-1231.727362
27384.365,42120,-1231.717121
27397.826,42121,-1231.789170
27397.880,42122,-1231.837924
27417.925,42123,-1231.973152
27419.414,42124,-1231.744022
27419.486,42125,-1231.781886
27444.557,42126,-1231.740849
27444.607,42127,-1231.460079
27449.342,42128,-1231.595235
27449.592,42129,-1231.293406
27463.392,42130,-1231.527657
27482.335,42131,-1231.439092
27482.389,42132,-1231.249484
27490.387,42133,-1231.426759
27490.495,42134,-1231.053097
27516.363,42135,-1230.930202
27516.418,42136,-1231.401733
27516.454,42137,-1231.471546
27530.246,42138,-1231.805902
27530.282,42139,-1231.594947
27553.266,42140,-1231.767678
27553.316,42141,-1231.739334
27553.351,42142,-1231.599923
27579.357,42143,-1231.747195
27579.425,42144,-1231.534292
27585.308,42145,-1231.678247
27585.357,42146,-1231.489361
27599.286,42147,-1231.198638
27612.360,42148,-1231.709981
27612.419,42149,-1231.599346
27626.800,42150,-1231.414282
27626.971,42151,-1231.577637
27635.320,42152,-1231.227343
27665.823,42153,-1231.392934
27665.976,42154,-1231.334876
27666.049,42155,-1231.086561
27666.124,42156,-1231.195176
27675.321,42157,-1230.994101
27698.387,42158,-1231.142167
27698.440,42159,-1231.327015
27706.346,42160,-1231.355286
27706.397,42161,-1231.685387
27730.509,42162,-1231.563357
27730.572,42163,-1231.770923
27730.606,42164,-1231.772654
27746.334,42165,-1231.705653
27746.386,42166,-1231.953535
27770.916,42167,-1231.802080
27770.967,42168,-1232.235315
27771.002,42169,-1232.260846
27793.327,42170,-1230.263798
27793.405,42171,-1226.961204
27800.311,42172,-1228.722486
27800.360,42173,-1231.902906
27814.345,42174,-1232.654485
27827.305,42175,-1232.533754
27827.354,42176,-1232.253561
27844.934,42177,-1231.773448
27844.985,42178,-1231.831722
27849.340,42179,-1231.681781
27874.266,42180,-1231.629926
27874.316,42181,-1231.877303
27880.477,42182,-1231.656178
27880.527,42183,-1231.578214
27893.303,42184,-1231.748638
27907.369,42185,-1231.684017
27907.421,42186,-1231.796166
27921.360,42187,-1231.465200
27921.441,42188,-1231.575329
27946.529,42189,-1231.453516
27946.630,42190,-1231.346199
27946.698,42191,-1231.482942
27960.320,42192,-1231.258643
27960.371,42193,-1231.428634
27986.336,42194,-1231.379880
27986.386,42195,-1231.359397
27986.421,42196,-1231.658486
28011.334,42197,-1231.513593
28011.388,42198,-1231.815783
28015.388,42199,-1231.736089
28015.440,42200,-1231.718996
28041.558,42201,-1231.883433
28041.642,42202,-1231.602159
28041.684,42203,-1231.732410
28066.492,42204,-1231.606919
28066.588,42205,-1231.473782
28091.710,42206,-1231.644855
28092.234,42207,-1231.431375
28092.276,42208,-1231.688344
28118.424,42209,-1231.592927
28143.549,42210,-1231.488856
28143.663,42211,-1231.511213
28145.826,42212,-1231.276818
28145.900,42213,-1231.503713
28171.050,42214,-1231.282083
28171.195,42215,-1231.126084
28194.286,42216,-1231.286987
28198.997,42217,-1231.151399
28199.038,42218,-1231.486764
28216.332,42219,-1231.506958
28216.388,42220,-1231.599274
28216.430,42221,-1232.007699
28216.463,42222,-1231.817298
28216.496,42223,-1232.026090
28221.663,42224,-1231.963993
28221.754,42225,-1231.943294
28246.320,42226,-1232.224136
28246.371,42227,-1232.264163
28246.406,42228,-1232.490986
28272.428,42229,-1230.382510
28272.481,42230,-1226.972167
28298.384,42231,-1229.391126
28298.444,42232,-1231.967743
28298.480,42233,-1232.799450
28322.339,42234,-1232.817192
28322.387,42235,-1232.305777
28346.292,42236,-1232.222549
28346.345,42237,-1231.842540
28346.380,42238,-1232.037701
28372.335,42239,-1231.867206
28372.389,42240,-1231.806263
28372.424,42241,-1231.948270
28372.457,42242,-1231.570425
28399.312,42243,-1231.728804
28399.364,42244,-1231.769769
28399.399,42245,-1231.725992
28420.383,42246,-1231.861148
28420.438,42247,-1231.697576
28426.438,42248,-1231.597038
28426.488,42249,-1231.659351
28426.523,42250,-1231.439020
28450.314,42251,-1231.518281
28450.365,42252,-1231.434115
28475.426,42253,-1231.074950
28475.479,42254,-1231.064925
28475.514,42255,-1231.862446
28501.333,42256,-1232.085013
28501.385,42257,-1231.953391
28531.400,42258,-1231.978562
28531.452,42259,-1232.069435
28531.487,42260,-1231.856532
28539.069,42261,-1231.968537
28546.202,42262,-1231.755345
28546.265,42263,-1231.619756
28546.300,42264,-1231.681060
28563.243,42265,-1231.348579
28591.046,42266,-1231.304801
28591.169,42267,-1231.920431
28591.457,42268,-1231.769048
28591.494,42269,-1231.838429
28619.486,42270,-1231.501910
28626.313,42271,-1231.638003
28626.366,42272,-1231.383630
28626.401,42273,-1231.346632
28626.436,42274,-1231.543884
28653.317,42275,-1231.126877
28653.371,42276,-1231.273645
28653.411,42277,-1231.251143
28679.314,42278,-1231.347497
28679.365,42279,-1231.653798
28704.312,42280,-1231.576772
28704.421,42281,-1231.885020
28704.457,42282,-1231.857541
28726.337,42283,-1231.883577
28726.386,42284,-1232.050106
28731.700,42285,-1231.827467
28731.792,42286,-1232.082633
28754.319,42287,-1232.148119
28780.404,42288,-1232.326909
28780.458,42289,-1231.418465
28780.494,42290,-1227.752595
28780.528,42291,-1227.362489
28809.328,42292,-1231.043144
28835.398,42293,-1232.708793
28835.450,42294,-1232.675689
28835.487,42295,-1232.223487
28835.521,42296,-1232.432134
28861.424,42297,-1232.038350
28886.832,42298,-1231.925985
28887.076,42299,-1232.034239
28887.168,42300,-1231.807201
28887.218,42301,-1231.873408
28916.348,42302,-1231.712000
28922.060,42303,-1231.601582
28922.166,42304,-1231.626175
28922.238,42305,-1231.575690
28922.303,42306,-1231.724910
28948.891,42307,-1231.444357
28948.942,42308,-1231.533138
28948.977,42309,-1231.600861
28972.590,42310,-1231.313384
28972.804,42311,-1231.493832
29006.322,42312,-1231.323481
29006.376,42313,-1231.308047
29006.411,42314,-1231.508256
29011.209,42315,-1231.430004
29011.245,42316,-1231.707528
29035.420,42317,-1231.632161
29035.470,42318,-1231.704499
29035.505,42319,-1231.813403
29062.501,42320,-1231.597976
29062.618,42321,-1231.762269
29086.339,42322,-1231.651851
29086.400,42323,-1231.556506
29086.454,42324,-1231.634036
29106.350,42325,-1231.385073
29106.401,42326,-1231.581316
29115.270,42327,-1231.440174
29115.307,42328,-1231.441688
29139.552,42329,-1231.518858
29165.895,42330,-1231.375625
29165.947,42331,-1231.526936
29165.982,42332,-1231.270904
29166.016,42333,-1231.338626
29191.910,42334,-1231.439452
29192.249,42335,-1231.124930
29193.410,42336,-1231.259581
29211.323,42337,-1231.136253
29211.374,42338,-1231.309489
29236.318,42339,-1231.622064
29236.370,42340,-1231.564583
29236.405,42341,-1231.815639
29261.598,42342,-1231.691229
29261.649,42343,-1231.683440
29287.530,42344,-1232.085662
29287.625,42345,-1231.938390
29287.667,42346,-1231.943727
29308.344,42347,-1232.181151
29308.396,42348,-1232.225578
29308.431,42349,-1232.199398
29308.465,42350,-1229.463680
29313.611,42351,-1226.567276
29338.964,42352,-1229.909680
29339.047,42353,-1232.199182
29339.087,42354,-1232.941457
29339.126,42355,-1232.633282
29364.323,42356,-1232.126122
29392.915,42357,-1231.953607
29392.968,42358,-1231.697504
29393.004,42359,-1231.895333
29393.037,42360,-1231.796599
29408.265,42361,-1231.671684
29408.311,42362,-1231.758663
29408.347,42363,-1231.496284
29416.315,42364,-1231.679689
29416.372,42365,-1231.476956
29416.406,42366,-1231.469311
29416.440,42367,-1231.531696
29416.474,42368,-1231.264269
29443.313,42369,-1231.456762
29443.363,42370,-1231.283886
29466.321,42371,-1231.279342
29466.370,42372,-1231.364734
29466.403,42373,-1231.187604
29493.308,42374,-1231.442698
29493.359,42375,-1231.350671
29513.447,42376,-1231.524556
29513.499,42377,-1231.676083
29513.534,42378,-1231.515685
29539.394,42379,-1231.820471
29539.448,42380,-1231.656611
29539.488,42381,-1231.715318
29539.526,42382,-1231.728516
29565.345,42383,-1231.489937
29601.350,42384,-1231.642475
29601.400,42385,-1231.455463
29601.435,42386,-1231.469960
29601.469,42387,-1231.552034
29605.244,42388,-1231.381755
29605.280,42389,-1231.625093
29605.315,42390,-1231.435846
29607.245,42391,-1231.511646
29607.288,42392,-1231.672982
29633.348,42393,-1231.295281
29633.399,42394,-1231.485105
29633.434,42395,-1231.387885
29657.602,42396,-1231.316846
29657.653,42397,-1231.343458
29691.414,42398,-1231.134811
29691.467,42399,-1231.490370
29691.507,42400,-1231.519147
29699.403,42401,-1231.725270
29699.447,42402,-1231.909902
29723.331,42403,-1231.900310
29723.383,42404,-1232.178483
29723.417,42405,-1232.024719
29749.262,42406,-1232.117612
29749.311,42407,-1232.179853
29775.420,42408,-1232.121579
29775.494,42409,-1232.499640
29775.532,42410,-1231.982384
29797.225,42411,-1229.408652
29797.320,42412,-1226.767485
29821.325,42413,-1230.054356
29821.372,42414,-1232.731872
29821.407,42415,-1233.065507
29847.773,42416,-1232.959271
29847.825,42417,-1232.448434
29847.863,42418,-1232.048015
29847.901,42419,-1232.147326
29873.506,42420,-1231.958079
29873.577,42421,-1232.048015
29873.612,42422,-1231.969474
29901.206,42423,-1231.781020
29901.342,42424,-1231.950650
29912.315,42425,-1231.722890
29912.367,42426,-1231.731329
29912.402,42427,-1231.707961
29937.941,42428,-1231.539124
29937.998,42429,-1231.677742
29962.854,42430,-1231.471258
29962.909,42431,-1231.512800
29962.944,42432,-1231.556866
29994.726,42433,-1231.396901
29994.787,42434,-1231.509627
30016.322,42435,-1231.405627
30016.372,42436,-1231.584417
30043.271,42437,-1231.681637
30043.331,42438,-1231.602014
30043.367,42439,-1231.711207
30065.813,42440,-1231.806119
30065.861,42441,-1231.655312
30068.493,42442,-1231.821264
30093.287,42443,-1231.587085
30093.336,42444,-1231.614203
30096.216,42445,-1231.609010
30096.252,42446,-1231.404906
30127.451,42447,-1231.565665
30127.546,42448,-1231.398992
30127.602,42449,-1231.448107
30135.308,42450,-1231.536817
30135.354,42451,-1231.351897
30160.336,42452,-1231.497871
30160.385,42453,-1231.384063
30160.421,42454,-1231.479624
30186.648,42455,-1231.533427
30186.699,42456,-1231.367259
30217.411,42457,-1231.484384
30217.463,42458,-1231.175127
30217.497,42459,-1231.306749
30222.321,42460,-1231.333361
30222.356,42461,-1230.990351
30252.280,42462,-1231.089374
30252.379,42463,-1231.001890
30252.431,42464,-1231.166977
30274.325,42465,-1231.409017
30274.381,42466,-1231.418032
30299.298,42467,-1231.634758
30299.348,42468,-1231.570930
30299.383,42469,-1231.601005
30316.986,42470,-1231.700244
30317.037,42471,-1231.465272
30323.331,42472,-1231.659135
30323.382,42473,-1231.682430
30323.417,42474,-1231.414715
30350.092,42475,-1229.148509
30350.458,42476,-1225.872889
30350.499,42477,-1228.640268
30350.538,42478,-1231.560977
30375.373,42479,-1232.188003
30375.417,42480,-1232.482764
30375.453,42481,-1231.721520
30400.295,42482,-1231.569560
30400.345,42483,-1231.298887
30412.290,42484,-1231.327087
30412.428,42485,-1231.321606
30412.498,42486,-1231.191138
30438.036,42487,-1231.328674
30438.109,42488,-1231.102572
30438.155,42489,-1231.162505
30438.201,42490,-1231.090167
30463.480,42491,-1230.943256
30491.195,42492,-1231.117646
30491.256,42493,-1230.873009
30518.412,42494,-1230.794757
30518.472,42495,-1230.868105
30518.506,42496,-1230.682536
30525.393,42497,-1230.860893
30525.433,42498,-1230.781919
30550.951,42499,-1230.897458
30551.018,42500,-1231.130988
30575.521,42501,-1230.900560
30575.569,42502,-1231.139643
30575.600,42503,-1231.151182
30602.705,42504,-1231.277179
30602.828,42505,-1231.349733
30619.342,42506,-1231.229578
30626.234,42507,-1231.323337
30626.271,42508,-1231.064925
30651.343,42509,-1231.092042
30651.397,42510,-1231.207581
30676.606,42511,-1231.095504
30676.653,42512,-1231.213351
30676.685,42513,-1231.077618
30701.655,42514,-1231.215947
30701.706,42515,-1231.210827
30722.543,42516,-1231.112597
30722.590,42517,-1231.321029
30722.622,42518,-1231.211548
30748.479,42519,-1231.328601
30748.529,42520,-1231.447746
30751.101,42521,-1231.166688
30751.158,42522,-1231.274005
30774.600,42523,-1231.074733
30800.928,42524,-1231.130628
30800.977,42525,-1231.144186
30801.012,42526,-1231.093341
30801.045,42527,-1231.424523
30834.458,42528,-1231.527513
30836.409,42529,-1231.753398
30836.448,42530,-1231.918845
30861.350,42531,-1231.790180
30861.403,42532,-1231.991616
30861.438,42533,-1231.845713
30887.527,42534,-1232.021330
30887.580,42535,-1232.092730
30920.417,42536,-1232.075637
30920.483,42537,-1232.238921
30920.578,42538,-1231.081441
30920.677,42539,-1227.631791
30920.747,42540,-1227.416003
30926.427,42541,-1230.957680
30926.476,42542,-1232.628594
30926.510,42543,-1232.973984
30926.543,42544,-1232.500289
30952.252,42545,-1232.209928
30952.296,42546,-1231.861797
30952.331,42547,-1231.893386
30978.480,42548,-1231.877735
30978.530,42549,-1231.779939
31003.312,42550,-1231.837924
31023.968,42551,-1231.627690
31024.042,42552,-1231.660938
31024.084,42553,-1231.640167
31024.127,42554,-1231.456834
31029.289,42555,-1231.620766
31055.345,42556,-1231.310571
31055.394,42557,-1231.300690
31080.390,42558,-1231.375264
31080.442,42559,-1231.241046
31080.477,42560,-1231.277107
31106.379,42561,-1231.150461
31106.431,42562,-1231.259869
31137.436,42563,-1231.292324
31137.486,42564,-1231.259869
31142.123,42565,-1231.566963
31142.169,42566,-1231.402454
31142.204,42567,-1231.533138
31142.238,42568,-1231.619901
31142.271,42569,-1231.505588
31168.411,42570,-1231.641465
31168.456,42571,-1231.386299
31168.489,42572,-1231.402021
31195.316,42573,-1231.436856
31195.366,42574,-1231.277972
31220.428,42575,-1231.545183
31220.477,42576,-1231.329827
31220.510,42577,-1231.446088
31252.166,42578,-1231.564944
31252.218,42579,-1231.475153
31252.253,42580,-1231.547491
31252.286,42581,-1231.446160
31277.448,42582,-1231.666563
31277.496,42583,-1231.703706
31277.528,42584,-1231.617304
31304.425,42585,-1231.723972
31304.480,42586,-1231.532345
31304.515,42587,-1231.868576
31330.548,42588,-1231.785997
31330.597,42589,-1231.678608
31330.630,42590,-1231.825519
31330.662,42591,-1231.462820
31357.351,42592,-1231.481211
31357.403,42593,-1231.570353
31357.439,42594,-1231.672838
31366.371,42595,-1232.044769
31366.478,42596,-1232.005174
31385.466,42597,-1232.244185
31385.515,42598,-1232.313927
31385.548,42599,-1232.152663
31410.301,42600,-1232.370975
31410.349,42601,-1232.116314
31435.424,42602,-1232.345300
31435.470,42603,-1232.362970
31435.503,42604,-1232.231636
31457.286,42605,-1231.423586
31457.331,42606,-1228.016560
31457.364,42607,-1227.604529
31464.269,42608,-1231.386804
31464.307,42609,-1232.913330
31491.901,42610,-1233.382121
31491.988,42611,-1232.961363
31492.026,42612,-1232.580777
31492.062,42613,-1232.315874
31516.333,42614,-1232.182810
31545.286,42615,-1232.293228
31545.332,42616,-1232.032508
31545.366,42617,-1232.167881
31545.399,42618,-1232.082633
31552.257,42619,-1231.904637
31577.414,42620,-1232.074339
31577.453,42621,-1231.803811
31577.484,42622,-1231.900526
31577.515,42623,-1231.823933
31603.565,42624,-1231.681493
31603.626,42625,-1231.800060
31603.660,42626,-1231.543091
31628.344,42627,-1231.698874
31628.384,42628,-1231.663102
31657.328,42629,-1231.569271
31657.377,42630,-1231.814268
31657.411,42631,-1231.728444
31663.240,42632,-1231.971782
31663.273,42633,-1232.008853
31687.732,42634,-1231.867206
31688.056,42635,-1232.046212
31688.093,42636,-1232.019382
31713.308,42637,-1231.913580
31713.358,42638,-1232.070156
31738.453,42639,-1231.828476
31738.505,42640,-1231.869658
31738.543,42641,-1231.785492
31767.434,42642,-1231.761620
31767.494,42643,-1231.857614
31774.322,42644,-1231.736161
31774.370,42645,-1231.862734
31774.403,42646,-1231.885452
31800.297,42647,-1231.809725
31800.345,42648,-1231.962478
31800.380,42649,-1231.839727
31800.415,42650,-1232.020320
31826.430,42651,-1232.038495
31826.478,42652,-1231.944376
31826.511,42653,-1232.067560
31857.768,42654,-1231.893819
31857.920,42655,-1232.030705
31863.301,42656,-1232.053207
31863.350,42657,-1231.814196
31863.385,42658,-1231.824510
31891.914,42659,-1231.704427
31891.962,42660,-1231.969041
31916.345,42661,-1232.126844
31916.397,42662,-1232.242238
31916.432,42663,-1232.471801
31947.614,42664,-1232.388068
31947.690,42665,-1232.513199
31947.731,42666,-1232.476417
31947.770,42667,-1232.408983
31973.369,42668,-1232.592821
31973.425,42669,-1232.485865
31973.460,42670,-1232.572195
31998.321,42671,-1231.792920
31998.374,42672,-1228.867523
32023.337,42673,-1227.114535
32026.338,42674,-1230.694869
32026.389,42675,-1233.051587
32036.439,42676,-1233.437798
32036.541,42677,-1233.294493
32042.429,42678,-1232.865730
32042.664,42679,-1232.405738
32042.705,42680,-1232.455574
32067.654,42681,-1232.453555
32067.710,42682,-1232.267625
32067.746,42683,-1232.358931
32067.784,42684,-1232.109823
32093.506,42685,-1232.199398
32125.407,42686,-1232.083210
32125.476,42687,-1232.009718
32125.513,42688,-1232.025513
32125.548,42689,-1231.833092
32129.409,42690,-1231.949136
32134.403,42691,-1231.851700
32134.511,42692,-1231.715101
32134.573,42693,-1231.761836
32134.634,42694,-1231.677959
32159.918,42695,-1231.764865
32185.433,42696,-1231.726641
32185.484,42697,-1231.725631
32185.519,42698,-1231.973080
32185.553,42699,-1231.894396
32211.319,42700,-1232.176535
32211.378,42701,-1232.084364
32211.440,42702,-1232.118622
32227.965,42703,-1232.190166
32228.024,42704,-1231.952453
32228.060,42705,-1232.056669
32228.093,42706,-1232.035177
32228.126,42707,-1231.893314
32233.422,42708,-1231.967743
32233.469,42709,-1231.848382
32258.406,42710,-1232.082994
32258.455,42711,-1231.874057
32258.489,42712,-1231.918340
32284.333,42713,-1232.108957
32284.385,42714,-1231.860282
32308.425,42715,-1232.012891
32308.475,42716,-1231.962911
32308.509,42717,-1231.904997
32336.451,42718,-1231.996880
32336.501,42719,-1231.841891
32361.386,42720,-1232.044481
32361.434,42721,-1231.809292
32386.344,42722,-1231.584994
32386.399,42723,-1231.770923
32386.433,42724,-1231.685892
32411.333,42725,-1232.034167
32411.385,42726,-1232.118694
32422.311,42727,-1232.216779
32422.364,42728,-1232.446847
32422.398,42729,-1232.305561
32430.304,42730,-1232.405594
32430.348,42731,-1232.560583
32430.382,42732,-1232.331308
32456.314,42733,-1232.532023
32456.364,42734,-1232.543490
32481.430,42735,-1232.353666
32481.483,42736,-1231.199648
32481.517,42737,-1227.692950
32481.551,42738,-1227.978047
32481.584,42739,-1231.680339
32508.332,42740,-1232.819716
32508.384,42741,-1233.422869
32508.419,42742,-1232.948597
32508.452,42743,-1232.771539
32529.316,42744,-1232.419946
32531.285,42745,-1232.252335
32531.334,42746,-1232.396362
32538.466,42747,-1232.122661
32538.510,42748,-1232.291858
32538.550,42749,-1232.166871
32564.431,42750,-1232.098211
32564.506,42751,-1232.139104
32592.201,42752,-1231.899949
32593.115,42753,-1231.949713
32593.158,42754,-1231.832227
32616.833,42755,-1231.720943
32616.916,42756,-1231.792488
32644.236,42757,-1231.556217
32644.322,42758,-1231.711423
32644.360,42759,-1231.630070
32666.361,42760,-1231.639085
32666.416,42761,-1231.832948
32666.451,42762,-1231.759744
32666.484,42763,-1231.881919
32694.234,42764,-1231.858695
32694.292,42765,-1231.903771
32718.329,42766,-1232.108597
32718.379,42767,-1231.970628
32718.414,42768,-1232.114944
32743.279,42769,-1231.933053
32743.328,42770,-1231.840593
32743.364,42771,-1231.970700
32753.192,42772,-1231.715678
32753.255,42773,-1231.847012
32778.322,42774,-1231.828188
32778.371,42775,-1231.780732
32778.405,42776,-1231.871749
32804.302,42777,-1231.709764
32828.263,42778,-1231.891511
32828.337,42779,-1231.831650
32828.373,42780,-1231.837347
32828.407,42781,-1231.997890
32847.289,42782,-1231.823861
32847.336,42783,-1231.953824
32855.016,42784,-1231.790396
32855.061,42785,-1231.765586
32855.094,42786,-1231.779001
32881.318,42787,-1231.481499
32881.369,42788,-1231.644350
32881.403,42789,-1231.614419
32881.436,42790,-1231.782102
32906.321,42791,-1232.086167
32931.362,42792,-1232.063593
32931.412,42793,-1232.358643
32931.446,42794,-1232.281761
32931.479,42795,-1232.373500
32952.175,42796,-1232.468123
32952.251,42797,-1232.195864
32952.312,42798,-1232.444323
32956.328,42799,-1232.415546
32956.378,42800,-1232.131964
32956.414,42801,-1230.670996
32956.448,42802,-1227.137830
32982.316,42803,-1228.248142
33008.340,42804,-1232.080469
33008.395,42805,-1233.160924
33008.431,42806,-1233.420489
33008.465,42807,-1232.842795
33034.405,42808,-1232.595706
33052.362,42809,-1232.314720
33052.430,42810,-1232.283420
33052.480,42811,-1232.284069
33052.517,42812,-1232.115809
33076.305,42813,-1232.252984
33076.355,42814,-1232.120857
33076.390,42815,-1232.008853
33103.324,42816,-1232.050106
33103.375,42817,-1231.879466
33136.333,42818,-1231.909397
33136.382,42819,-1231.802080
33136.417,42820,-1231.726136
33142.607,42821,-1231.810158
33142.646,42822,-1231.576772
33142.680,42823,-1231.760033
33142.714,42824,-1231.596389
33142.748,42825,-1231.619684
33168.406,42826,-1231.490803
33168.467,42827,-1231.072930
33171.354,42828,-1230.944770
33171.524,42829,-1230.773770
33171.568,42830,-1232.565271
33195.266,42831,-1232.910301
33195.314,42832,-1232.452040
33220.406,42833,-1232.317894
33220.462,42834,-1232.269717
33235.276,42835,-1231.950290
33235.347,42836,-1232.099221
33235.382,42837,-1231.934207
33235.416,42838,-1231.948487
33235.448,42839,-1232.022051
33261.414,42840,-1231.865691
33261.481,42841,-1232.013973
33261.518,42842,-1231.823716
33288.311,42843,-1230.363253
33288.360,42844,-1231.380890
33288.394,42845,-1232.675978
33313.371,42846,-1232.653259
33313.423,42847,-1232.370038
33313.457,42848,-1232.160092
33313.491,42849,-1232.111193
33340.967,42850,-1231.857830
33341.965,42851,-1232.045563
33342.001,42852,-1231.778208
33346.292,42853,-1231.722169
33346.339,42854,-1231.773808
33346.374,42855,-1231.727073
33346.408,42856,-1232.133839
33346.442,42857,-1231.864970
33372.328,42858,-1232.387924
33372.378,42859,-1232.369749
