timestamp_ms,sample_index,raw_ecg_mv
25.796,159711,-1210.831635
42.017,159712,-1210.805454
42.128,159713,-1210.982224
42.211,159714,-1210.907146
42.385,159715,-1210.978763
69.395,159716,-1210.941043
69.502,159717,-1210.874042
69.564,159718,-1210.967007
94.069,159719,-1210.943567
94.142,159720,-1211.054635
127.934,159721,-1210.960660
151.846,159722,-1211.003645
151.928,159723,-1211.157841
151.994,159724,-1211.168010
152.309,159725,-1211.226789
178.421,159726,-1211.279221
206.568,159727,-1211.337423
206.674,159728,-1211.439620
206.740,159729,-1211.433345
206.816,159730,-1211.461545
226.573,159731,-1211.470993
232.022,159732,-1211.470127
232.095,159733,-1211.491259
257.408,159734,-1211.267466
257.714,159735,-1210.192276
282.042,159736,1.556241
282.125,159737,4.307681
282.189,159738,4.140719
320.114,159739,-1210.458982
320.212,159740,-1211.857420
320.936,159741,-1211.661394
320.984,159742,-1211.284991
321.030,159743,-1211.423537
346.211,159744,-1211.475825
346.304,159745,-1211.556313
372.012,159746,-1211.623746
372.211,159747,-1211.518232
372.345,159748,-1211.632834
401.191,159749,-1211.560928
401.287,159750,-1211.561289
407.759,159751,-1211.555880
407.924,159752,-1211.445462
408.048,159753,-1211.478205
434.057,159754,-1211.452025
434.141,159755,-1211.372186
434.201,159756,-1211.373052
434.258,159757,-1211.243593
442.060,159758,-1211.250517
442.205,159759,-1211.161158
442.333,159760,-1211.007034
469.347,159761,-1210.946668
470.424,159762,-1210.771052
492.027,159763,-1210.740761
492.099,159764,-1210.620174
492.151,159765,-1210.578343
494.937,159766,-1210.658975
495.020,159767,-1210.752156
500.045,159768,-1211.103172
500.124,159769,-1211.447914
500.184,159770,-1211.795035
535.260,159771,-1212.108620
535.360,159772,-1212.220336
552.151,159773,-1212.448385
552.308,159774,-1212.491802
552.386,159775,-1212.583685
582.629,159776,-1212.666986
582.727,159777,-1212.662442
599.319,159778,-1212.788439
599.427,159779,-1212.803079
599.492,159780,-1212.822047
626.764,159781,-1212.891068
627.085,159782,-1212.933764
627.168,159783,-1213.007183
627.226,159784,-1213.052692
657.045,159785,-1212.997231
657.162,159786,-1213.126184
657.228,159787,-1213.132964
679.519,159788,-1213.144215
679.615,159789,-1213.211648
703.429,159790,-1213.185396
703.511,159791,-1213.316008
703.573,159792,-1213.271726
706.028,159793,-1213.356468
706.125,159794,-1213.406160
711.837,159795,-1213.436668
712.249,159796,-1213.545067
712.326,159797,-1213.526315
737.716,159798,-1213.540739
761.223,159799,-1213.569949
761.411,159800,-1213.587618
761.541,159801,-1213.699046
786.071,159802,-1213.683468
805.214,159803,-1213.663490
805.322,159804,-1213.713398
805.398,159805,-1213.814441
805.472,159806,-1213.964887
811.213,159807,-1213.943611
811.327,159808,-1214.065568
811.779,159809,-1214.144325
837.031,159810,-1214.152475
837.117,159811,-1214.265706
837.184,159812,-1214.239742
864.578,159813,-1214.292968
864.978,159814,-1214.340135
890.119,159815,-1214.326432
890.266,159816,-1213.782707
890.385,159817,-1212.720861
890.500,159818,-1210.529445
909.409,159819,1.995966
915.288,159820,-1210.580723
921.624,159821,-1214.292174
941.081,159822,-1214.841958
941.242,159823,-1214.376052
941.327,159824,-1214.310421
970.685,159825,-1214.457333
970.779,159826,-1214.558015
990.038,159827,-1214.561765
990.120,159828,-1214.593138
990.188,159829,-1214.581094
1007.898,159830,-1214.540706
1008.235,159831,-1214.609005
1010.096,159832,-1214.529383
1010.238,159833,-1214.508395
1015.013,159834,-1214.541355
1015.109,159835,-1214.453366
1015.336,159836,-1214.497865
1040.040,159837,-1214.386510
1040.125,159838,-1214.347997
1040.194,159839,-1214.320158
1068.748,159840,-1214.136680
1068.834,159841,-1214.152114
1091.019,159842,-1214.020276
1091.097,159843,-1213.874662
1091.162,159844,-1213.750541
1112.259,159845,-1213.608317
1112.431,159846,-1213.546870
1136.042,159847,-1213.489893
1136.125,159848,-1213.434793
1136.186,159849,-1213.603413
1136.245,159850,-1213.846679
1163.257,159851,-1214.234117
1188.041,159852,-1214.545394
1188.135,159853,-1214.771855
1188.205,159854,-1215.040797
1188.272,159855,-1215.123953
1243.776,159856,-1215.270000
1243.966,159857,-1215.227520
1244.075,159858,-1215.271875
1272.014,159859,-1215.320557
1272.119,159860,-1215.323081
1295.023,159861,-1215.402198
1295.098,159862,-1215.393760
1295.153,159863,-1215.416334
1318.715,159864,-1215.452756
1318.842,159865,-1215.409050
1324.696,159866,-1215.415685
1324.817,159867,-1215.418498
1324.904,159868,-1215.410204
1350.033,159869,-1215.487663
1350.161,159870,-1215.423835
1350.222,159871,-1215.455208
1377.611,159872,-1215.449799
1377.750,159873,-1215.491485
1377.875,159874,-1215.492495
1377.949,159875,-1215.445760
1402.057,159876,-1215.575363
1402.166,159877,-1215.461987
1402.253,159878,-1215.499707
1431.660,159879,-1215.596350
1431.741,159880,-1215.518675
1449.151,159881,-1215.590580
1449.287,159882,-1215.572333
1449.398,159883,-1215.591518
1450.948,159884,-1215.644960
1451.121,159885,-1215.556034
1477.606,159886,-1215.528195
1477.777,159887,-1215.581204
1477.980,159888,-1215.650585
1502.079,159889,-1215.642291
1502.164,159890,-1215.542042
1531.140,159891,-1215.603634
1531.279,159892,-1215.602841
1531.381,159893,-1215.530936
1549.139,159894,-1215.494298
1549.302,159895,-1215.468118
1555.088,159896,-1215.566419
1555.219,159897,-1215.576444
1581.086,159898,-1215.636233
1605.962,159899,-1215.671429
1606.050,159900,-1215.724438
1606.112,159901,-1215.745714
1606.166,159902,-1215.684843
1637.610,159903,-1215.669337
1637.714,159904,-1215.768504
1637.777,159905,-1215.749248
1659.031,159906,-1215.772832
1659.101,159907,-1215.609476
1659.152,159908,-1214.759018
1659.201,159909,-1213.812998
1659.250,159910,-1211.020882
1668.013,159911,0.868128
1668.117,159912,-1212.738026
1691.024,159913,-1215.566347
1691.140,159914,-1215.862334
1691.221,159915,-1215.339164
1718.723,159916,-1215.330005
1719.297,159917,-1215.552139
1742.044,159918,-1215.578392
1742.142,159919,-1215.561804
1742.218,159920,-1215.515502
1759.059,159921,-1215.500933
1759.142,159922,-1215.486869
1761.918,159923,-1215.437682
1762.120,159924,-1215.397078
1771.140,159925,-1215.300868
1792.116,159926,-1215.259109
1792.205,159927,-1215.346448
1820.680,159928,-1215.215043
1820.760,159929,-1215.207254
1820.821,159930,-1215.112558
1847.153,159931,-1215.000337
1847.292,159932,-1214.906579
1853.019,159933,-1214.696849
1853.136,159934,-1214.694685
1855.921,159935,-1214.557438
1856.056,159936,-1214.441322
1856.169,159937,-1214.258205
1881.444,159938,-1214.177717
1881.543,159939,-1214.090522
1887.686,159940,-1214.134805
1887.779,159941,-1214.151754
1907.053,159942,-1214.350377
1908.931,159943,-1214.597105
1908.997,159944,-1214.958073
1936.312,159945,-1215.160158
1936.400,159946,-1215.299209
1936.466,159947,-1215.445688
1951.208,159948,-1215.456722
1951.383,159949,-1215.553077
1951.527,159950,-1215.639911
1951.665,159951,-1215.628372
1982.020,159952,-1215.644816
1982.090,159953,-1215.577815
1982.139,159954,-1215.738862
2007.054,159955,-1215.665226
2007.114,159956,-1215.641714
2036.919,159957,-1215.702874
2036.979,159958,-1215.641931
2037.026,159959,-1215.672510
2038.867,159960,-1215.633132
2038.918,159961,-1215.658375
2044.054,159962,-1215.683184
2044.197,159963,-1215.630752
2044.306,159964,-1215.689747
2045.886,159965,-1215.632627
2045.942,159966,-1215.671429
2071.985,159967,-1215.721048
2072.055,159968,-1215.693642
2096.099,159969,-1215.747445
2123.056,159970,-1215.733742
2123.135,159971,-1215.749176
2123.192,159972,-1215.779899
2123.244,159973,-1215.761869
2138.030,159974,-1215.819783
2140.936,159975,-1215.812931
2141.005,159976,-1215.821586
2170.002,159977,-1215.860027
2170.076,159978,-1215.840914
2170.132,159979,-1215.903588
2192.020,159980,-1215.872720
2192.088,159981,-1215.888370
2228.319,159982,-1215.909502
2228.396,159983,-1215.893491
2228.453,159984,-1215.932076
2232.933,159985,-1215.916281
2233.008,159986,-1215.940009
2233.080,159987,-1215.991649
2233.259,159988,-1215.961141
2259.040,159989,-1216.022589
2284.033,159990,-1216.011338
2284.120,159991,-1216.016747
2284.186,159992,-1216.034128
2284.247,159993,-1216.005280
2314.240,159994,-1216.055043
2314.905,159995,-1215.985374
2315.285,159996,-1216.001313
2319.485,159997,-1216.067593
2320.093,159998,-1215.924143
2322.072,159999,-1215.941091
2322.146,160000,-1215.957824
2322.196,160001,-1216.033046
2348.142,160002,-1216.059371
2348.272,160003,-1216.063698
2375.268,160004,-1216.147359
2375.481,160005,-1216.143609
2375.651,160006,-1216.200152
2399.017,160007,-1216.237439
2399.087,160008,-1216.170799
2427.731,160009,-1216.220346
2427.814,160010,-1216.194887
2427.869,160011,-1216.206715
2431.948,160012,-1215.883755
2432.019,160013,-1214.950284
2433.973,160014,-1213.645965
2434.072,160015,-1210.345895
2459.254,160016,-1210.289785
2484.261,160017,-1214.309844
2484.348,160018,-1216.236646
2484.406,160019,-1216.115698
2484.458,160020,-1215.928326
2510.197,160021,-1215.937197
2510.263,160022,-1216.100769
2510.310,160023,-1216.086272
2535.966,160024,-1216.138272
2536.026,160025,-1216.139065
2561.193,160026,-1216.069107
2561.281,160027,-1216.092330
2561.339,160028,-1216.048697
2589.229,160029,-1216.000303
2589.408,160030,-1215.982417
2615.665,160031,-1215.923926
2615.840,160032,-1215.905103
2615.892,160033,-1215.814157
2632.069,160034,-1215.779034
2632.140,160035,-1215.729198
2634.954,160036,-1215.624117
2635.044,160037,-1215.586253
2637.992,160038,-1215.418931
2638.047,160039,-1215.359502
2638.098,160040,-1215.244324
2664.140,160041,-1215.089695
2664.734,160042,-1215.015338
2665.009,160043,-1214.867705
2690.177,160044,-1214.819384
2690.250,160045,-1214.804454
2718.962,160046,-1214.829985
2719.047,160047,-1215.047937
2719.100,160048,-1215.258099
2719.151,160049,-1215.511463
2719.201,160050,-1215.760787
2741.063,160051,-1215.904165
2741.156,160052,-1216.055693
2764.233,160053,-1216.110866
2764.321,160054,-1216.156735
2764.363,160055,-1216.200008
2767.226,160056,-1216.179165
2770.102,160057,-1216.218615
2770.886,160058,-1216.175414
2770.933,160059,-1216.205922
2796.191,160060,-1216.221284
2820.402,160061,-1216.137767
2820.522,160062,-1216.122477
2820.578,160063,-1216.186882
2820.632,160064,-1216.212918
2850.220,160065,-1216.133440
2856.533,160066,-1216.114688
2856.709,160067,-1216.180607
2858.166,160068,-1216.266648
2858.259,160069,-1216.233544
2883.492,160070,-1216.175559
2883.584,160071,-1216.164885
2883.644,160072,-1216.162360
2910.142,160073,-1216.194022
2910.225,160074,-1216.035715
2940.075,160075,-1216.208374
2940.152,160076,-1216.166471
2940.205,160077,-1216.240757
2944.961,160078,-1216.202316
2945.015,160079,-1216.183059
2945.060,160080,-1216.180391
2945.107,160081,-1216.174188
2945.152,160082,-1216.164019
2974.955,160083,-1216.057135
2975.071,160084,-1216.124280
2975.124,160085,-1216.168563
2975.176,160086,-1216.113750
2999.174,160087,-1216.160918
3027.776,160088,-1216.130915
3027.866,160089,-1216.123198
3027.922,160090,-1216.145051
3027.977,160091,-1216.115770
3038.143,160092,-1216.140724
3062.179,160093,-1216.095576
3062.269,160094,-1216.090095
3064.079,160095,-1216.086416
3064.152,160096,-1216.073146
3090.188,160097,-1216.074877
3114.861,160098,-1215.999366
3114.943,160099,-1216.005784
3115.009,160100,-1216.033840
3115.150,160101,-1215.925152
3131.052,160102,-1215.928470
3138.281,160103,-1215.887577
3138.436,160104,-1215.980253
3138.513,160105,-1215.969219
3138.610,160106,-1215.956453
3165.646,160107,-1216.041701
3165.756,160108,-1216.056125
3167.845,160109,-1216.074661
3188.977,160110,-1216.089806
3189.035,160111,-1216.040980
3214.800,160112,-1216.100696
3217.156,160113,-1216.060885
3217.209,160114,-1216.091393
3242.009,160115,-1215.838174
3242.121,160116,-1215.433139
3246.953,160117,-1214.626458
3247.022,160118,-1212.686819
3251.142,160119,0.438067
3278.833,160120,-1211.554942
3279.089,160121,-1215.153812
3279.260,160122,-1216.227847
3279.324,160123,-1215.836226
3302.588,160124,-1215.804204
3305.208,160125,-1215.959482
3305.313,160126,-1215.999726
3329.129,160127,-1216.007299
3329.304,160128,-1216.015521
3329.450,160129,-1215.976215
3354.070,160130,-1216.031243
3354.134,160131,-1215.946573
3358.490,160132,-1215.937413
3358.565,160133,-1215.902290
3383.954,160134,-1215.811633
3384.192,160135,-1215.825913
3384.294,160136,-1215.713620
3409.189,160137,-1215.675612
3409.274,160138,-1215.617482
3437.240,160139,-1215.480523
3437.320,160140,-1215.458958
3437.378,160141,-1215.290771
3437.435,160142,-1215.206172
3437.490,160143,-1215.087892
3460.028,160144,-1214.943072
3460.111,160145,-1214.865541
3460.175,160146,-1214.739761
3467.961,160147,-1214.647950
3469.195,160148,-1214.627756
3469.263,160149,-1214.614991
3469.354,160150,-1214.854940
3493.368,160151,-1215.074911
3493.560,160152,-1215.366643
3493.721,160153,-1215.607168
3521.242,160154,-1215.750546
3521.316,160155,-1215.942534
3551.048,160156,-1215.950683
3551.131,160157,-1215.925080
3551.195,160158,-1215.976647
3556.990,160159,-1216.073434
3557.133,160160,-1216.135964
3583.001,160161,-1216.066078
3583.067,160162,-1216.075093
3583.115,160163,-1216.043648
3610.140,160164,-1216.015665
3610.290,160165,-1216.041196
3634.179,160166,-1216.022589
3634.291,160167,-1216.021146
3634.453,160168,-1216.019848
3646.104,160169,-1215.988403
3646.217,160170,-1215.996264
3651.946,160171,-1215.907266
3652.041,160172,-1215.953496
3652.216,160173,-1215.947366
3677.445,160174,-1215.905607
3677.586,160175,-1215.770524
3678.936,160176,-1215.900054
3679.010,160177,-1215.994606
3705.064,160178,-1215.924864
3730.006,160179,-1215.870268
3730.101,160180,-1215.892409
3730.173,160181,-1215.735328
3730.243,160182,-1215.818124
3762.021,160183,-1215.882889
3767.582,160184,-1215.779899
3767.647,160185,-1215.828005
3789.324,160186,-1215.740233
3789.481,160187,-1215.801464
3789.593,160188,-1215.809830
3815.958,160189,-1215.718957
3816.050,160190,-1215.718308
3816.122,160191,-1215.669914
3816.191,160192,-1215.619645
3841.353,160193,-1215.501726
3841.489,160194,-1215.283054
3841.572,160195,-1215.667534
3846.934,160196,-1215.620078
3851.921,160197,-1215.510309
3852.007,160198,-1215.450304
3852.070,160199,-1215.456722
3854.928,160200,-1215.388856
3854.997,160201,-1215.217495
3855.060,160202,-1215.234083
3887.134,160203,-1215.117751
3887.230,160204,-1215.047504
3887.295,160205,-1215.179343
3907.069,160206,-1214.987066
3907.153,160207,-1214.896193
3932.995,160208,-1215.188141
3933.066,160209,-1214.983244
3933.120,160210,-1214.772505
3955.017,160211,-1214.613837
3955.090,160212,-1215.120059
3960.938,160213,-1215.028897
3961.030,160214,-1214.986273
3987.070,160215,-1214.849891
4012.231,160216,-1214.619535
4012.319,160217,-1214.194089
4012.397,160218,-1213.466382
4012.512,160219,-1211.421301
4038.062,160220,1.709355
4038.145,160221,0.175833
4038.206,160222,-1213.336779
4055.424,160223,-1214.599341
4055.508,160224,-1214.003327
4060.041,160225,-1213.926806
4060.183,160226,-1213.947433
4060.359,160227,-1214.032969
4085.050,160228,-1214.052226
4085.130,160229,-1213.878773
4111.229,160230,-1213.771312
4111.310,160231,-1213.693781
4111.367,160232,-1213.625122
4136.102,160233,-1213.544850
4136.242,160234,-1213.377384
4154.026,160235,-1213.256147
4154.118,160236,-1213.049735
4154.190,160237,-1212.994562
4163.491,160238,-1212.948044
4163.593,160239,-1212.692012
4187.027,160240,-1212.602797
4187.116,160241,-1212.412324
4213.747,160242,-1212.184059
4220.904,160243,-1212.032315
4220.979,160244,-1211.769576
4242.178,160245,-1211.625910
4242.273,160246,-1211.396563
4242.337,160247,-1211.128559
4272.884,160248,-1211.069636
4274.842,160249,-1210.884644
4274.906,160250,-1210.886880
4274.963,160251,-1210.965420
4275.018,160252,-1211.102018
4275.073,160253,-1211.356896
4301.346,160254,-1211.499625
4301.429,160255,-1211.648773
4301.486,160256,-1211.666947
4325.009,160257,-1211.660961
4325.083,160258,-1211.746281
4357.064,160259,-1211.627352
4358.906,160260,-1211.619419
4358.960,160261,-1211.541672
4361.992,160262,-1211.455847
4362.095,160263,-1211.479287
4372.187,160264,-1211.341390
4391.257,160265,-1211.282827
4391.347,160266,-1211.175294
4391.406,160267,-1211.124232
4391.455,160268,-1211.174573
4416.099,160269,-1211.000039
4441.036,160270,-1211.028887
4441.132,160271,-1210.938735
4441.204,160272,-1210.849809
4441.273,160273,-1210.870075
4471.360,160274,-1210.729438
4475.508,160275,-1210.771269
4475.585,160276,-1210.700013
4475.648,160277,-1210.599836
4475.710,160278,-1210.638637
4502.058,160279,-1210.473118
4502.147,160280,-1210.518338
4502.208,160281,-1210.446289
4524.835,160282,-1210.370994
4525.111,160283,-1210.386716
4557.146,160284,-1210.267643
4557.240,160285,-1210.342145
4557.310,160286,-1210.279471
4565.405,160287,-1210.184343
4566.268,160288,-1210.226462
4568.923,160289,-1210.126934
4572.372,160290,-1210.206701
4592.611,160291,-1210.160326
4621.441,160292,-1210.090585
4621.527,160293,-1210.160326
4621.588,160294,-1210.003967
4621.647,160295,-1210.048177
4646.156,160296,-1210.054524
4651.016,160297,-1210.009592
4651.102,160298,-1210.081209
4651.167,160299,0.115755
4651.232,160300,0.066713
4677.032,160301,0.026180
4679.946,160302,-1210.011395
4680.058,160303,-1210.136887
4704.244,160304,-1210.039090
4704.373,160305,-1210.212254
4728.045,160306,-1210.275577
4730.960,160307,-1210.259349
4731.059,160308,-1210.379937
4759.197,160309,-1210.438355
4759.305,160310,-1210.362483
4770.361,160311,-1210.513290
4770.436,160312,-1210.366162
4770.493,160313,-1210.153835
4770.550,160314,0.650970
4770.607,160315,2.048471
4791.042,160316,4.963843
4791.125,160317,4.232602
4820.222,160318,0.337457
4820.299,160319,-1211.053913
4820.356,160320,-1210.741194
4843.098,160321,-1210.747108
4843.181,160322,-1210.792472
4843.244,160323,-1210.972632
4875.004,160324,-1210.999101
4875.077,160325,-1211.054418
4899.054,160326,-1211.208614
4899.157,160327,-1211.063001
4899.226,160328,-1211.213879
4924.988,160329,-1211.178251
4925.054,160330,-1211.140387
4950.454,160331,-1211.294511
4950.606,160332,-1211.147311
4950.723,160333,-1211.295232
4978.089,160334,-1211.155605
4978.169,160335,-1211.140604
4978.227,160336,-1211.252897
4978.283,160337,-1211.059178
5004.101,160338,-1211.174429
5004.205,160339,-1210.976238
5004.279,160340,-1210.888971
5029.025,160341,-1210.933687
5029.091,160342,-1210.625006
5054.756,160343,-1210.733693
5054.862,160344,-1210.650465
5054.928,160345,-1210.573655
5071.042,160346,-1210.838991
5071.142,160347,-1210.835457
5081.972,160348,-1211.353074
5082.055,160349,-1211.622376
5082.125,160350,-1211.931345
5107.033,160351,-1212.343448
5107.100,160352,-1212.352247
5109.924,160353,-1212.645421
5110.004,160354,-1212.630781
5134.075,160355,-1212.723313
5159.101,160356,-1212.935278
5159.169,160357,-1212.756633
5159.221,160358,-1212.923667
5159.272,160359,-1212.856810
5181.476,160360,-1212.811950
5187.201,160361,-1212.954535
5187.361,160362,-1212.817864
5212.168,160363,-1213.023411
5212.286,160364,-1212.921719
5239.586,160365,-1212.895106
5239.719,160366,-1213.118179
5239.801,160367,-1212.894169
5277.105,160368,-1213.078079
5277.274,160369,-1213.052259
5277.374,160370,-1213.037330
5277.471,160371,-1213.243382
5277.879,160372,-1212.972781
5277.981,160373,-1213.220663
5278.039,160374,-1213.166428
5299.994,160375,-1213.189146
5300.062,160376,-1213.383298
5300.114,160377,-1213.178400
5334.227,160378,-1213.484268
5334.333,160379,-1213.476479
5334.401,160380,-1213.437028
5334.467,160381,-1213.658658
5356.026,160382,-1213.505111
5360.932,160383,-1213.688084
5361.004,160384,-1213.655773
5361.068,160385,-1213.516578
5361.131,160386,-1213.736189
5388.026,160387,-1213.455347
5388.112,160388,-1213.690896
5388.172,160389,-1213.634497
5412.131,160390,-1213.619424
5412.194,160391,-1213.872282
5437.152,160392,-1213.685271
5439.294,160393,-1214.111726
5439.430,160394,-1214.021791
5458.165,160395,-1214.024098
5458.275,160396,-1214.270899
5464.216,160397,-1214.017103
5464.419,160398,-1214.306166
5469.260,160399,-1214.235559
5470.904,160400,-1214.172236
5470.962,160401,-1214.388241
5491.422,160402,-1214.273207
5491.507,160403,-1213.847617
5520.164,160404,-1213.072814
5520.391,160405,-1210.733693
5527.408,160406,1.830014
5542.072,160407,-1210.538460
5542.140,160408,-1214.073862
5571.017,160409,-1214.905280
5571.099,160410,-1214.314244
5571.166,160411,-1214.362421
5578.062,160412,-1214.437355
5578.149,160413,-1214.521449
5602.110,160414,-1214.688916
5627.879,160415,-1214.387159
5627.967,160416,-1214.637493
5628.027,160417,-1214.472479
5628.085,160418,-1214.409372
5655.150,160419,-1214.650980
5680.008,160420,-1214.331841
5680.096,160421,-1214.432018
5680.156,160422,-1214.328452
5680.220,160423,-1214.298882
5686.109,160424,-1214.529527
5686.217,160425,-1214.249262
5686.322,160426,-1214.370426
5686.421,160427,-1214.142234
5686.518,160428,-1214.018761
5712.103,160429,-1214.105956
5712.173,160430,-1213.727751
5712.693,160431,-1213.831029
5739.052,160432,-1213.620362
5739.143,160433,-1213.453472
5765.553,160434,-1213.577666
5765.645,160435,-1213.329783
5765.885,160436,-1213.730419
5781.382,160437,-1213.825692
5781.466,160438,-1214.151321
5804.048,160439,-1214.744089
5804.182,160440,-1214.774524
5830.153,160441,-1215.206460
5834.574,160442,-1215.183381
5839.396,160443,-1215.276490
5862.428,160444,-1215.486364
5864.063,160445,-1215.203431
5875.060,160446,-1215.509083
5876.190,160447,-1215.434437
5879.246,160448,-1215.411719
5900.764,160449,-1215.678785
5900.932,160450,-1215.579690
5902.954,160451,-1214.390332
5903.019,160452,-1215.152730
5903.084,160453,-1214.872609
5932.839,160454,-1213.447197
5937.144,160455,-1214.400357
5950.160,160456,-1213.415248
5950.343,160457,-1213.317523
5950.407,160458,-1213.347670
5985.104,160459,-1213.546797
5985.244,160460,-1213.253262
5991.064,160461,-1213.525954
5991.133,160462,-1213.371758
6016.595,160463,-1213.370460
6040.106,160464,-1213.592595
6040.256,160465,-1213.335914
6040.376,160466,-1213.597283
6040.494,160467,-1213.513982
6071.072,160468,-1213.518598
6071.204,160469,-1213.672001
6071.306,160470,-1213.453833
6074.018,160471,-1213.714336
6074.115,160472,-1213.596057
6099.006,160473,-1213.475613
6125.018,160474,-1213.592667
6125.104,160475,-1213.288241
6125.167,160476,-1213.522276
6125.228,160477,-1213.440779
6150.052,160478,-1213.440779
6176.911,160479,-1213.577882
6176.986,160480,-1213.457006
6177.035,160481,-1213.677698
6178.890,160482,-1213.581776
6178.948,160483,-1213.655917
6179.002,160484,-1213.830957
6179.056,160485,-1213.645965
6180.926,160486,-1213.840549
6181.077,160487,-1213.709287
6207.052,160488,-1213.755301
6207.134,160489,-1213.785881
6231.069,160490,-1213.492778
6231.153,160491,-1212.811590
6231.215,160492,-1211.390577
6257.119,160493,-1210.341207
6257.211,160494,1.371970
6287.004,160495,-1210.686382
6287.095,160496,-1213.547807
6287.163,160497,-1213.841054
6292.161,160498,-1213.199171
6292.283,160499,-1213.270860
6292.395,160500,-1213.279443
6320.554,160501,-1213.335625
6321.932,160502,-1213.470349
6322.199,160503,-1213.260547
6322.253,160504,-1213.424046
6350.366,160505,-1213.284275
6350.446,160506,-1213.215326
6350.503,160507,-1213.280020
6377.655,160508,-1213.083849
6378.260,160509,-1213.174650
6378.333,160510,-1212.968454
6378.399,160511,-1212.923234
6378.462,160512,-1212.952732
6403.842,160513,-1212.690137
6403.930,160514,-1212.799040
6404.002,160515,-1212.554837
6404.070,160516,-1212.463747
6429.883,160517,-1212.419392
6429.976,160518,-1212.063183
6430.036,160519,-1212.107466
6454.189,160520,-1211.785587
6454.346,160521,-1211.682886
6479.098,160522,-1211.656922
6479.184,160523,-1211.439476
6479.248,160524,-1211.681876
6500.045,160525,-1211.764672
6500.132,160526,-1212.154273
6500.197,160527,-1212.493461
6507.457,160528,-1212.559669
6507.533,160529,-1213.045696
6507.592,160530,-1213.011294
6507.652,160531,-1213.112842
6534.094,160532,-1213.281606
6559.103,160533,-1213.079594
6559.197,160534,-1213.329783
6559.269,160535,-1213.159576
6559.340,160536,-1213.192608
6586.019,160537,-1213.265235
6611.073,160538,-1213.031488
6611.181,160539,-1213.300358
6611.253,160540,-1213.209845
6611.313,160541,-1213.200037
6618.648,160542,-1213.343847
6618.727,160543,-1213.141113
6618.817,160544,-1213.336635
6618.932,160545,-1213.229318
6619.001,160546,-1213.200758
6642.318,160547,-1213.305839
6642.544,160548,-1213.130151
6642.727,160549,-1213.322932
6672.458,160550,-1213.163543
6672.634,160551,-1213.307282
6700.051,160552,-1213.428230
6700.144,160553,-1213.211792
6700.212,160554,-1213.474532
6705.223,160555,-1213.322932
6705.308,160556,-1213.330072
6731.050,160557,-1213.454193
6731.157,160558,-1213.252758
6731.243,160559,-1213.545860
6756.031,160560,-1213.319686
6756.105,160561,-1213.430537
6788.992,160562,-1213.530065
6789.059,160563,-1213.278361
6789.117,160564,-1213.479219
6796.046,160565,-1213.282616
6796.132,160566,-1213.365123
6796.198,160567,-1213.390798
6796.263,160568,-1213.223765
6822.014,160569,-1213.417916
6822.092,160570,-1213.371758
6822.152,160571,-1213.387409
6847.365,160572,-1213.500279
6847.532,160573,-1213.358560
6873.106,160574,-1213.684983
6873.191,160575,-1213.499558
6873.255,160576,-1213.591080
6900.335,160577,-1213.595696
6900.492,160578,-1213.468762
6906.373,160579,-1213.671063
6906.535,160580,-1213.466815
6906.667,160581,-1213.142195
6932.098,160582,-1212.169491
6932.197,160583,-1210.147777
6935.051,160584,1.168154
6935.177,160585,0.988860
6959.055,160586,-1212.192786
6985.025,160587,-1213.662625
6985.114,160588,-1213.164192
6985.184,160589,-1213.228236
6985.254,160590,-1213.132098
6996.145,160591,-1213.247709
7020.992,160592,-1213.349040
7021.075,160593,-1213.228092
7021.128,160594,-1213.247276
7045.946,160595,-1213.337284
7046.046,160596,-1213.067044
7046.101,160597,-1213.281606
7046.147,160598,-1213.039422
7071.001,160599,-1213.082190
7071.066,160600,-1213.129213
7100.032,160601,-1212.837698
7100.114,160602,-1213.069713
7100.166,160603,-1212.801853
7107.691,160604,-1212.788439
7107.852,160605,-1212.784544
7107.976,160606,-1212.455092
7108.095,160607,-1212.582243
7134.114,160608,-1212.300247
7159.027,160609,-1212.206129
7159.091,160610,-1212.104798
7159.144,160611,-1211.784361
7159.194,160612,-1211.903506
7185.942,160613,-1211.606798
7202.047,160614,-1211.705244
7202.110,160615,-1211.883528
7203.959,160616,-1211.882158
7204.027,160617,-1212.456823
7228.049,160618,-1212.504135
7230.921,160619,-1212.807983
7231.006,160620,-1212.971195
7255.296,160621,-1212.841953
7255.362,160622,-1213.269706
7280.197,160623,-1213.053053
7280.366,160624,-1213.124958
7280.499,160625,-1213.195565
7310.035,160626,-1213.035167
7310.147,160627,-1213.246988
7335.043,160628,-1213.007111
7335.118,160629,-1213.117890
7335.194,160630,-1213.164625
7361.012,160631,-1212.979417
7361.083,160632,-1213.226433
7385.214,160633,-1213.046562
7385.319,160634,-1213.112553
7385.382,160635,-1213.180852
7411.078,160636,-1213.014684
7411.194,160637,-1213.277351
7431.989,160638,-1213.057236
7432.072,160639,-1213.103610
7432.136,160640,-1213.205590
7438.969,160641,-1212.990595
7439.065,160642,-1213.198450
7439.154,160643,-1213.079954
7439.243,160644,-1213.119910
7465.050,160645,-1213.227515
7491.075,160646,-1213.061130
7491.172,160647,-1213.279803
7491.231,160648,-1213.030190
7491.287,160649,-1213.124742
7518.721,160650,-1213.172558
7544.134,160651,-1212.964343
7544.279,160652,-1213.147604
7544.396,160653,-1213.000260
7544.489,160654,-1213.123299
7549.948,160655,-1213.100004
7550.055,160656,-1212.883711
7550.108,160657,-1213.111327
7575.001,160658,-1212.797093
7575.085,160659,-1212.856666
7575.264,160660,-1212.919339
7575.442,160661,-1212.692949
7601.051,160662,-1212.979994
7630.971,160663,-1212.681049
7631.044,160664,-1212.887462
7631.102,160665,-1212.958069
7631.147,160666,-1212.757498
7637.985,160667,-1213.030911
7639.935,160668,-1212.940904
7639.989,160669,-1213.141330
7665.578,160670,-1213.125102
7665.867,160671,-1212.990235
7690.093,160672,-1213.164409
7690.205,160673,-1212.912416
7690.291,160674,-1213.031128
7719.622,160675,-1212.632728
7719.692,160676,-1211.452241
7719.744,160677,0.171649
7732.177,160678,2.167760
7732.353,160679,1.870979
7732.505,160680,-1211.855617
7732.660,160681,-1212.983023
7739.094,160682,-1212.816061
7739.239,160683,-1212.525339
7739.361,160684,-1212.748772
7765.399,160685,-1212.886163
7765.502,160686,-1212.776178
7789.821,160687,-1212.981364
7789.958,160688,-1212.954679
7790.033,160689,-1212.782885
7818.342,160690,-1212.974584
7818.445,160691,-1212.733554
7827.006,160692,-1212.772932
7827.112,160693,-1212.694897
7852.041,160694,-1212.611524
7854.937,160695,-1212.849165
7855.061,160696,-1212.498510
7879.585,160697,-1212.548490
7879.904,160698,-1212.498582
7903.043,160699,-1212.255532
7904.937,160700,-1212.363354
7904.995,160701,-1212.077824
7920.997,160702,-1212.022723
7921.075,160703,-1211.873792
7921.132,160704,-1211.681444
7929.052,160705,-1211.671635
7929.127,160706,-1211.466088
7929.199,160707,-1211.530277
7929.243,160708,-1211.417623
7962.595,160709,-1211.432913
7962.705,160710,-1211.760850
7963.449,160711,-1211.825254
7968.538,160712,-1212.241107
7968.888,160713,-1212.512934
7989.542,160714,-1212.578132
7989.725,160715,-1212.680184
7989.871,160716,-1212.692805
8026.680,160717,-1212.746680
8026.754,160718,-1212.836255
8029.953,160719,-1212.872893
8030.048,160720,-1212.836904
8030.123,160721,-1212.689632
8056.104,160722,-1212.720139
8056.176,160723,-1212.649460
8056.229,160724,-1212.659197
8056.282,160725,-1212.745598
8082.165,160726,-1212.486321
8082.325,160727,-1212.577122
8082.383,160728,-1212.653932
8108.018,160729,-1212.499087
8108.114,160730,-1212.566304
8108.192,160731,-1212.451991
8136.222,160732,-1212.493173
8136.316,160733,-1212.524906
8136.385,160734,-1212.420690
8136.453,160735,-1212.586498
8162.029,160736,-1212.534066
8164.545,160737,-1212.509111
8165.022,160738,-1212.528296
8189.116,160739,-1212.514665
8189.326,160740,-1212.620612
8215.001,160741,-1212.501827
8215.138,160742,-1212.627391
8215.195,160743,-1212.577050
8240.607,160744,-1212.445572
8240.715,160745,-1212.561472
8252.404,160746,-1212.507885
8253.092,160747,-1212.644772
8273.176,160748,-1212.474277
8294.868,160749,-1212.452424
8294.960,160750,-1212.560823
8295.018,160751,-1212.398261
8295.074,160752,-1212.530387
8323.456,160753,-1212.427181
8323.565,160754,-1212.524906
8323.666,160755,-1212.450837
8347.161,160756,-1212.327076
8347.256,160757,-1212.547624
8347.314,160758,-1212.783967
8355.259,160759,-1212.595874
8355.424,160760,-1212.666192
8355.539,160761,-1212.501467
8355.607,160762,-1212.470382
8382.615,160763,-1212.539403
8382.702,160764,-1212.419897
8382.762,160765,-1212.225024
8432.042,160766,-1210.967944
8432.141,160767,1.366489
8432.204,160768,6.934999
8432.266,160769,4.363214
8432.326,160770,-1211.368724
8457.881,160771,-1212.396962
8457.996,160772,-1211.952909
8481.905,160773,-1211.821504
8482.165,160774,-1211.858286
8482.296,160775,-1212.119150
8510.041,160776,-1211.971445
8510.120,160777,-1212.068160
8512.247,160778,-1211.940000
8512.404,160779,-1211.814147
8537.165,160780,-1211.919229
8537.253,160781,-1211.759984
8537.316,160782,-1211.669904
8564.656,160783,-1211.684689
8564.867,160784,-1211.565905
8570.243,160785,-1211.646537
8570.324,160786,-1211.626703
8570.387,160787,-1211.397934
8597.103,160788,-1211.491115
8597.309,160789,-1211.376225
8597.477,160790,-1211.283116
8623.200,160791,-1211.156398
8623.296,160792,-1210.949625
8657.263,160793,-1210.906353
8657.467,160794,-1210.564568
8657.595,160795,-1210.593200
8682.062,160796,-1210.511919
8682.149,160797,-1210.317263
8684.005,160798,-1210.375465
8684.105,160799,-1210.401573
8710.061,160800,-1210.822259
8710.184,160801,-1211.074901
8710.284,160802,-1211.233568
8734.052,160803,-1211.657211
8734.147,160804,-1211.645816
8761.091,160805,-1211.736328
8761.199,160806,-1211.934518
8761.269,160807,-1211.814797
8769.493,160808,-1211.955001
8769.643,160809,-1211.804988
8795.177,160810,-1211.846169
8795.348,160811,-1211.883745
8795.693,160812,-1211.875739
8821.464,160813,-1211.951467
8821.563,160814,-1211.819052
8845.062,160815,-1211.903867
8845.166,160816,-1211.843212
8845.248,160817,-1211.769648
8887.061,160818,-1211.942668
8889.039,160819,-1211.818763
8889.112,160820,-1211.968560
8889.178,160821,-1211.979594
8889.240,160822,-1211.790780
8936.338,160823,-1212.034984
8936.478,160824,-1211.847251
8936.587,160825,-1211.898818
8936.678,160826,-1212.003106
8959.083,160827,-1211.995678
8959.171,160828,-1212.105447
8959.248,160829,-1211.972887
8979.016,160830,-1212.084387
8979.092,160831,-1212.006496
8985.874,160832,-1212.088354
8985.933,160833,-1212.140498
9089.702,160834,-1211.946491
9089.977,160835,-1212.080421
9090.086,160836,-1212.161846
9090.143,160837,-1211.921969
9090.197,160838,-1211.962285
9090.251,160839,-1211.810830
9090.306,160840,-1211.991206
9090.359,160841,-1211.987528
9090.413,160842,-1211.829726
9090.466,160843,-1212.155066
9101.022,160844,-1212.010102
9101.109,160845,-1212.156365
9101.169,160846,-1212.206778
9127.090,160847,-1212.127155
9127.184,160848,-1212.311859
9127.294,160849,-1212.202162
9142.061,160850,-1212.350083
9142.156,160851,-1212.211177
9142.233,160852,-1212.151460
9142.309,160853,-1212.412685
9148.988,160854,-1211.916921
9149.077,160855,-1210.917603
9149.156,160856,0.997154
9150.903,160857,6.535734
9150.971,160858,5.654408
9171.566,160859,-1210.985614
9171.652,160860,-1212.517189
9171.714,160861,-1212.026978
9191.110,160862,-1211.848189
9191.243,160863,-1212.121674
9191.314,160864,-1211.977070
9191.377,160865,-1212.179948
9197.304,160866,-1212.196753
9211.202,160867,-1211.987239
9211.318,160868,-1212.098018
9211.375,160869,-1211.921032
9211.421,160870,-1211.986590
9221.097,160871,-1211.951972
9221.181,160872,-1211.859584
9221.242,160873,-1211.877759
9234.094,160874,-1211.669544
9234.181,160875,-1211.860594
9234.244,160876,-1211.662476
9241.031,160877,-1211.469911
9241.110,160878,-1211.597927
9259.077,160879,-1211.437023
9278.969,160880,-1211.223111
9279.060,160881,-1211.239266
9279.120,160882,-1210.938447
9279.179,160883,-1210.847862
9304.172,160884,-1210.734415
9304.333,160885,-1210.621472
9326.028,160886,-1210.693377
9326.114,160887,-1210.447731
9326.179,160888,-1210.607841
9346.071,160889,-1210.789732
9346.171,160890,-1211.099566
9349.961,160891,-1211.555087
9350.047,160892,-1211.608024
9372.545,160893,-1211.912738
9374.942,160894,-1211.941442
9375.017,160895,-1211.940216
9393.310,160896,-1212.147854
9393.506,160897,-1211.989764
9398.017,160898,-1212.121890
9416.812,160899,-1212.007506
9417.206,160900,-1212.039311
9439.008,160901,-1212.141508
9439.081,160902,-1211.959473
9439.135,160903,-1212.065059
9459.127,160904,-1212.020704
9459.233,160905,-1212.036643
9488.972,160906,-1212.180670
9489.073,160907,-1211.927523
9489.135,160908,-1212.073930
9496.023,160909,-1212.075516
9496.119,160910,-1211.933004
9510.056,160911,-1212.060659
9510.135,160912,-1211.956948
9534.814,160913,-1212.075516
9534.896,160914,-1212.007722
9534.958,160915,-1211.973176
9549.109,160916,-1212.149369
9549.242,160917,-1211.955506
9574.160,160918,-1212.108548
9574.395,160919,-1211.967045
9574.509,160920,-1212.021064
9591.125,160921,-1212.181824
9591.373,160922,-1211.965675
9605.449,160923,-1212.126434
9605.601,160924,-1211.925720
9621.900,160925,-1211.747796
9632.099,160926,-1211.982479
9632.192,160927,-1211.788689
9645.381,160928,-1211.933797
9645.458,160929,-1211.785732
9653.096,160930,-1211.943534
9677.096,160931,-1212.076959
9677.211,160932,-1212.005630
9684.057,160933,-1212.095350
9684.128,160934,-1212.099677
9697.362,160935,-1212.141363
9711.337,160936,-1212.255892
9724.972,160937,-1211.949231
9725.403,160938,-1212.129247
9725.462,160939,-1212.088931
9752.046,160940,-1212.045442
9752.120,160941,-1211.628074
9752.174,160942,-1210.233169
9772.065,160943,3.590792
9772.148,160944,7.086239
9781.052,160945,4.301983
9781.128,160946,-1211.595114
9791.115,160947,-1212.055250
9804.082,160948,-1211.626631
9804.165,160949,-1211.513472
9827.219,160950,-1211.576002
9827.378,160951,-1211.673510
9827.507,160952,-1211.439980
9853.270,160953,-1211.733227
9853.352,160954,-1211.523569
9861.085,160955,-1211.312253
9861.192,160956,-1211.496380
9873.201,160957,-1211.356608
9884.145,160958,-1211.372763
9884.253,160959,-1211.217485
9907.750,160960,-1211.100937
9907.929,160961,-1211.236742
9908.057,160962,-1210.999534
9933.115,160963,-1211.126973
9933.225,160964,-1210.969603
9939.984,160965,-1210.782375
9940.056,160966,-1210.813604
9952.383,160967,-1210.489562
9968.593,160968,-1210.550577
9968.686,160969,-1210.308248
9980.091,160970,-1210.151960
9980.170,160971,-1210.159677
10005.127,160972,0.139772
10005.247,160973,0.024593
10005.343,160974,0.049692
10020.871,160975,-1210.028777
10020.952,160976,-1210.521656
10043.054,160977,-1210.648446
10043.144,160978,-1210.817931
10043.213,160979,-1211.212076
10069.848,160980,-1211.250733
10069.925,160981,-1211.446832
10079.207,160982,-1211.334539
10079.290,160983,-1211.360286
10085.006,160984,-1211.573766
10099.124,160985,-1211.463204
10099.216,160986,-1211.515131
10124.303,160987,-1211.394255
10124.418,160988,-1211.388774
10124.493,160989,-1211.531070
10147.104,160990,-1211.341751
10147.213,160991,-1211.493855
10156.083,160992,-1211.338145
10156.161,160993,-1211.412358
10198.733,160994,-1211.536335
10198.938,160995,-1211.351848
10199.070,160996,-1211.531503
10199.190,160997,-1211.372402
10199.293,160998,-1211.351199
10223.187,160999,-1211.577372
10225.178,161000,-1211.406949
10225.281,161001,-1211.586027
10238.041,161002,-1211.530349
10238.114,161003,-1211.602615
10252.020,161004,-1211.525949
10252.095,161005,-1211.402694
10261.055,161006,-1211.580113
10274.164,161007,-1211.573405
10274.320,161008,-1211.549100
10297.263,161009,-1211.510804
10297.431,161010,-1211.322062
10297.580,161011,-1211.492269
10324.652,161012,-1211.373412
10324.743,161013,-1211.297107
10328.995,161014,-1211.493134
10329.082,161015,-1211.271072
10341.935,161016,-1211.586748
10356.077,161017,-1211.533234
10356.213,161018,-1211.549894
10370.341,161019,-1211.766403
10370.414,161020,-1211.608817
10377.955,161021,-1211.822586
10403.061,161022,-1211.645166
10403.141,161023,-1211.691685
10409.125,161024,-1211.794819
10409.256,161025,-1211.627352
10434.095,161026,-1211.496235
10434.229,161027,-1210.284520
10434.332,161028,3.208763
10449.041,161029,6.991903
10449.118,161030,5.648277
10476.070,161031,-1211.171399
10476.199,161032,-1211.984571
10476.301,161033,-1211.487797
10491.078,161034,-1211.407093
10491.209,161035,-1211.306700
10505.041,161036,-1211.597350
10505.126,161037,-1211.451520
10513.605,161038,-1211.430100
10538.064,161039,-1211.540879
10538.174,161040,-1211.373556
10544.368,161041,-1211.500851
10544.473,161042,-1211.349324
10557.111,161043,-1211.328408
10573.535,161044,-1211.335909
10574.097,161045,-1211.150196
10585.046,161046,-1211.274894
10585.145,161047,-1211.006890
10592.959,161048,-1210.975157
10622.019,161049,-1211.038696
10627.019,161050,-1210.712994
10627.130,161051,-1210.846564
10627.195,161052,-1210.499875
10650.059,161053,-1210.430278
10650.137,161054,-1210.398760
10650.199,161055,-1210.076521
10667.730,161056,-1210.137247
10667.858,161057,0.099528
10679.960,161058,0.082507
10680.036,161059,-1210.033753
10691.984,161060,-1210.113303
10707.093,161061,-1210.599763
10707.209,161062,-1210.729582
10721.827,161063,-1211.034873
10721.974,161064,-1211.235948
10732.080,161065,-1211.190223
10753.026,161066,-1211.510588
10753.112,161067,-1211.362305
10758.944,161068,-1211.397573
10759.018,161069,-1211.522920
10775.922,161070,-1211.439187
10786.888,161071,-1211.440846
10786.973,161072,-1211.565039
10800.047,161073,-1211.320259
10800.189,161074,-1211.485850
10808.081,161075,-1211.368436
10833.972,161076,-1211.395481
10834.062,161077,-1211.482604
10841.137,161078,-1211.260037
10841.254,161079,-1211.425412
10873.679,161080,-1211.293934
10873.790,161081,-1211.273740
10873.858,161082,-1211.342833
10883.743,161083,-1211.193108
10886.772,161084,-1211.323360
10906.574,161085,-1211.190584
10906.736,161086,-1211.293574
10906.882,161087,-1211.341174
10919.047,161088,-1211.176736
10919.142,161089,-1211.319682
10943.143,161090,-1211.316436
10943.306,161091,-1211.213519
10943.438,161092,-1211.146157
10969.030,161093,-1210.903251
10971.082,161094,-1211.139594
10974.993,161095,-1211.020665
10975.077,161096,-1211.157769
10987.043,161097,-1211.058169
11001.032,161098,-1211.006746
11001.116,161099,-1211.171399
11021.435,161100,-1211.071295
11021.569,161101,-1211.260253
11022.949,161102,-1211.354372
11047.086,161103,-1211.304536
11047.171,161104,-1211.445967
11054.036,161105,-1211.387187
11054.112,161106,-1211.475681
11086.984,161107,-1211.533017
11087.154,161108,-1211.368003
11087.254,161109,-1211.443731
11095.058,161110,-1210.704917
11095.147,161111,0.698209
11119.988,161112,5.349910
11120.066,161113,7.627872
11120.125,161114,2.709682
11134.260,161115,-1211.323865
11134.352,161116,-1211.616462
11160.444,161117,-1211.113774
11160.559,161118,-1211.150773
11160.680,161119,-1211.331221
11181.893,161120,-1211.242800
11181.994,161121,-1211.310450
11199.546,161122,-1211.421806
11199.646,161123,-1211.228448
11199.709,161124,-1211.234290
11222.995,161125,-1211.199815
11223.069,161126,-1211.253618
11228.937,161127,-1211.343554
11228.998,161128,-1211.144642
11242.115,161129,-1211.162673
11256.062,161130,-1211.007828
11256.182,161131,-1210.992538
11274.045,161132,-1210.960299
11274.130,161133,-1210.746170
11277.929,161134,-1210.714653
11302.087,161135,-1210.592407
11302.170,161136,-1210.451914
11310.041,161137,-1210.339477
11310.145,161138,-1210.194079
11322.002,161139,-1210.121886
11336.075,161140,0.174679
11336.180,161141,0.245069
11350.193,161142,0.191988
11350.367,161143,0.103206
11365.331,161144,-1210.136021
11365.491,161145,-1210.417945
11377.118,161146,-1210.659047
11392.190,161147,-1210.749272
11392.265,161148,-1210.820600
11405.102,161149,-1211.113486
11405.262,161150,-1211.080166
11419.327,161151,-1210.998019
11437.082,161152,-1211.017925
11437.158,161153,-1210.900799
11443.080,161154,-1211.082329
11443.171,161155,-1210.989365
11457.382,161156,-1211.022685
11471.794,161157,-1211.020377
11472.003,161158,-1210.827163
11485.189,161159,-1210.883346
11485.339,161160,-1210.809998
11495.042,161161,-1210.924094
11508.926,161162,-1210.866397
11509.033,161163,-1210.788938
11535.978,161164,-1210.928999
11536.073,161165,-1210.905054
11536.132,161166,-1210.713211
11557.225,161167,-1210.831562
11557.304,161168,-1210.793554
11564.978,161169,-1210.799757
11565.146,161170,-1210.788362
11589.000,161171,-1210.733477
11589.077,161172,-1210.889476
11589.136,161173,-1210.778192
11603.263,161174,-1210.729727
11603.427,161175,-1210.779851
11630.180,161176,-1210.582599
11630.373,161177,-1210.708379
11630.496,161178,-1210.596662
11652.058,161179,-1210.548413
11652.163,161180,-1210.574377
11657.901,161181,-1210.608274
11657.955,161182,-1210.698786
11672.251,161183,-1210.753960
11687.024,161184,-1210.809493
11687.109,161185,-1210.843390
11699.896,161186,-1210.809998
11699.941,161187,-1210.963040
11707.933,161188,-1210.864089
11732.734,161189,-1210.818220
11732.853,161190,-1210.837909
11738.054,161191,-1210.743718
11738.156,161192,-1210.460929
11753.030,161193,2.363642
11772.791,161194,5.154100
11772.868,161195,8.029157
11780.066,161196,5.427946
11780.220,161197,-1210.374383
11804.354,161198,-1211.038984
11804.491,161199,-1210.546610
11804.527,161200,-1210.360031
11819.569,161201,-1210.429773
11819.791,161202,-1210.618659
11844.029,161203,-1210.621616
11844.110,161204,-1210.557067
11844.167,161205,-1210.526921
11858.018,161206,-1210.451914
11858.097,161207,-1210.497783
11883.047,161208,-1210.357074
11883.196,161209,-1210.349646
11883.301,161210,-1210.360464
11908.248,161211,-1210.197613
11908.309,161212,-1210.292453
11920.494,161213,-1210.115972
11920.566,161214,-1210.068660
11927.049,161215,-1210.029930
11951.368,161216,0.159605
11951.543,161217,0.152609
11953.126,161218,0.352314
11953.189,161219,0.836611
11970.692,161220,1.841914
11994.958,161221,1.798136
11995.028,161222,2.772211
11995.072,161223,2.999971
11995.114,161224,3.025935
12020.119,161225,2.409656
12020.183,161226,1.710653
12020.238,161227,0.065919
12035.019,161228,-1210.054957
12035.102,161229,-1210.378062
12048.020,161230,-1210.551514
12048.096,161231,-1210.621328
12063.281,161232,-1210.688257
12076.052,161233,-1210.644695
12076.119,161234,-1210.771485
12090.078,161235,-1210.732684
12090.142,161236,-1210.691719
12097.924,161237,-1210.870652
12122.087,161238,-1210.729727
12122.164,161239,-1210.787785
12130.609,161240,-1210.822114
12130.689,161241,-1210.714725
12150.355,161242,-1210.842092
12155.377,161243,-1210.709821
12155.468,161244,-1210.783097
12170.166,161245,-1210.764345
12170.237,161246,-1210.684362
12183.306,161247,-1210.873681
12196.191,161248,-1210.691358
12196.267,161249,-1210.785621
12210.379,161250,-1210.911185
12210.448,161251,-1210.762326
12219.489,161252,-1210.930585
12243.135,161253,-1210.735857
12243.210,161254,-1210.871662
12250.191,161255,-1210.787712
12250.260,161256,-1210.608995
12275.079,161257,-1210.775019
12276.106,161258,-1210.645561
12277.985,161259,-1210.724750
12287.951,161260,-1210.744367
12288.014,161261,-1210.697633
12314.434,161262,-1210.826802
12314.679,161263,-1210.832356
12314.990,161264,-1210.834015
12328.345,161265,-1211.117092
12328.419,161266,-1210.972416
12352.170,161267,-1211.044754
12352.373,161268,-1211.064227
12352.483,161269,-1210.974724
12381.557,161270,-1211.176376
12381.638,161271,-1210.943423
12384.916,161272,-1210.968954
12385.006,161273,0.289857
12392.899,161274,3.795256
12419.901,161275,6.696782
12419.972,161276,6.779649
12423.044,161277,0.351160
12436.980,161278,-1211.139089
12437.047,161279,-1210.867840
12451.186,161280,-1210.665466
12451.283,161281,-1210.607913
12466.914,161282,-1210.742420
12466.996,161283,-1210.894813
12489.148,161284,-1210.782231
12489.262,161285,-1210.819302
12489.345,161286,-1210.712490
12504.230,161287,-1210.718548
12504.389,161288,-1210.589306
12529.210,161289,-1210.484513
12529.357,161290,-1210.704700
12529.403,161291,-1210.423282
12544.187,161292,-1210.440591
12544.253,161293,-1210.445640
12569.873,161294,-1210.218096
12570.063,161295,-1210.319427
12570.196,161296,-1210.079334
12592.308,161297,-1210.005193
12592.473,161298,0.119578
12601.189,161299,0.333563
12601.247,161300,0.786558
12610.227,161301,0.842597
12624.096,161302,1.993225
12624.201,161303,1.933004
12647.141,161304,2.363786
12647.299,161305,2.580800
12647.359,161306,0.460929
12672.010,161307,0.169919
12672.107,161308,-1210.200787
12681.985,161309,-1210.294617
12682.060,161310,-1210.707225
12706.163,161311,-1210.624645
12706.218,161312,-1210.846564
12706.259,161313,-1210.785116
12720.961,161314,-1210.833510
12721.029,161315,-1210.929648
12732.984,161316,-1210.788506
12733.053,161317,-1210.911185
12747.188,161318,-1211.005808
12761.111,161319,-1210.848439
12761.307,161320,-1211.056582
12775.053,161321,-1210.775019
12775.148,161322,-1210.938375
12782.959,161323,-1210.957343
12807.085,161324,-1210.951501
12807.165,161325,-1211.069564
12814.678,161326,-1210.857598
12814.777,161327,-1210.917243
12822.994,161328,-1210.957270
12846.975,161329,-1210.779779
12847.027,161330,-1211.053264
12852.976,161331,-1210.892000
12853.059,161332,-1210.898203
12872.873,161333,-1210.859618
12887.493,161334,-1210.799973
12895.044,161335,-1210.949049
12895.192,161336,-1210.828245
12895.293,161337,-1210.866902
12906.096,161338,-1210.765643
12924.532,161339,-1210.738670
12924.734,161340,-1211.013958
12943.118,161341,-1210.728284
12943.210,161342,-1211.056654
12967.830,161343,-1211.046918
12968.142,161344,-1210.971911
12968.461,161345,-1211.274966
12976.460,161346,-1211.105480
12976.570,161347,-1211.134906
12997.971,161348,-1211.064227
12998.039,161349,-1210.944144
12998.086,161350,-1211.021531
13024.568,161351,0.367892
13026.840,161352,3.556967
13029.876,161353,6.318504
13030.222,161354,6.610813
13042.006,161355,0.834447
13056.056,161356,-1210.678665
13056.159,161357,-1210.970973
13071.998,161358,-1210.747685
13072.310,161359,-1210.368830
13081.980,161360,-1210.797954
13103.010,161361,-1210.436841
13103.087,161362,-1210.742276
13107.978,161363,-1210.599186
13108.090,161364,-1210.343876
13121.978,161365,-1210.685588
13136.042,161366,-1210.443981
13136.119,161367,-1210.368542
13150.033,161368,-1210.370777
13150.110,161369,-1210.200714
13175.046,161370,-1210.091306
13175.135,161371,-1210.269086
13175.203,161372,0.282284
13189.066,161373,0.157153
13189.177,161374,0.299737
13214.352,161375,1.917714
13214.920,161376,2.671818
13215.022,161377,1.218711
13229.080,161378,2.789376
13229.181,161379,2.309912
13255.330,161380,3.195637
13255.522,161381,3.369090
13255.680,161382,3.414815
13272.129,161383,3.265162
13272.276,161384,0.960011
13285.222,161385,0.856372
13285.364,161386,-1210.124843
13293.074,161387,-1210.070968
13319.948,161388,-1210.654360
13320.030,161389,-1210.576324
13324.354,161390,-1210.778192
13324.427,161391,-1210.950635
13351.066,161392,-1210.685588
13351.156,161393,-1211.192171
13351.217,161394,-1210.956549
13369.054,161395,-1210.971190
13369.133,161396,-1211.095095
13390.407,161397,-1210.914142
13390.569,161398,-1211.205729
13390.691,161399,-1210.929648
13406.069,161400,-1211.008693
13406.160,161401,-1211.163610
13430.144,161402,-1210.931379
13430.422,161403,-1211.113414
13430.562,161404,-1211.096321
13445.143,161405,-1211.293718
13445.309,161406,-1210.997370
13459.112,161407,-1211.196209
13459.179,161408,-1211.394039
13471.982,161409,-1211.065669
13486.065,161410,-1211.161014
13486.212,161411,-1210.978258
13501.118,161412,-1211.166784
13501.261,161413,-1211.179766
13507.889,161414,-1210.981359
13533.488,161415,-1211.226140
13533.579,161416,-1211.298478
13541.074,161417,-1210.998452
13541.167,161418,-1211.377812
13551.121,161419,-1211.084565
13564.225,161420,-1211.353362
13564.622,161421,-1211.574704
13587.029,161422,-1211.096970
13587.120,161423,-1211.594898
13587.186,161424,-1211.043816
13613.355,161425,-1211.495658
13613.472,161426,-1211.388846
13618.947,161427,0.147200
13619.120,161428,4.027416
13646.104,161429,6.226621
13646.192,161430,5.079454
13646.254,161431,-1210.171000
13658.068,161432,-1210.957992
13658.165,161433,-1211.456857
13687.696,161434,-1210.702537
13687.779,161435,-1211.118174
13687.843,161436,-1210.813604
13697.970,161437,-1210.845482
13698.088,161438,-1211.180631
13715.218,161439,-1210.790165
13718.286,161440,-1210.846131
13730.629,161441,-1210.600629
13748.055,161442,-1210.589883
13748.172,161443,-1210.682559
13752.984,161444,-1210.655225
13753.078,161445,-1210.679314
13770.413,161446,-1210.506943
13781.023,161447,-1210.071256
13781.142,161448,-1210.562765
13804.037,161449,-1210.052793
13804.168,161450,-1210.006707
13804.263,161451,0.119073
13819.847,161452,0.300098
13819.916,161453,2.213196
13842.659,161454,1.634637
13842.953,161455,1.409761
13843.177,161456,3.032570
13861.014,161457,3.138589
13861.089,161458,3.017641
13873.003,161459,2.935422
13873.082,161460,0.632723
13899.530,161461,-1210.023223
13899.659,161462,0.155566
13899.754,161463,-1210.380153
13919.765,161464,-1210.462516
13919.858,161465,-1210.572213
13937.012,161466,-1210.601711
13937.084,161467,-1210.629838
13937.130,161468,-1210.695469
13962.122,161469,-1210.526055
13962.213,161470,-1210.689339
13970.637,161471,-1210.727996
13970.747,161472,-1210.565650
13983.045,161473,-1210.544951
13996.118,161474,-1210.494466
13996.207,161475,-1210.316109
14011.080,161476,-1210.734054
14011.225,161477,-1210.366306
14019.037,161478,-1210.416935
14043.993,161479,-1210.344381
14044.080,161480,-1210.543004
14048.071,161481,-1210.438572
14048.286,161482,-1210.381812
14062.327,161483,-1210.608274
14079.065,161484,-1210.289063
14079.169,161485,-1210.401645
14090.059,161486,-1210.566371
14090.158,161487,-1210.313368
14114.188,161488,-1210.643902
14114.346,161489,-1210.038441
14114.478,161490,0.114601
14129.857,161491,-1210.323754
14129.977,161492,-1210.448885
14145.193,161493,-1210.741482
14145.382,161494,-1210.554327
14153.843,161495,-1210.679314
14177.209,161496,-1210.972993
14177.388,161497,-1210.809421
14182.917,161498,-1210.969315
14182.978,161499,-1210.616928
14197.131,161500,-1210.908949
14231.113,161501,-1210.558005
14231.259,161502,-1210.334140
14231.384,161503,3.189291
14231.504,161504,5.006395
14237.002,161505,7.021978
14268.725,161506,4.976104
14268.956,161507,0.048394
14269.238,161508,-1211.094374
14269.295,161509,-1211.286217
14278.587,161510,-1210.793410
14289.090,161511,-1210.856444
14289.221,161512,-1211.016482
14312.097,161513,-1210.978114
14312.202,161514,-1210.974291
14335.967,161515,-1210.925393
14336.046,161516,-1210.792617
14336.104,161517,-1210.769466
14343.138,161518,-1210.804805
14343.342,161519,-1210.464968
14369.340,161520,-1210.576180
14369.456,161521,-1210.807330
14369.523,161522,-1210.735136
14384.025,161523,-1210.410733
14384.132,161524,-1210.437634
14408.192,161525,-1210.266417
14408.314,161526,1.430316
14408.414,161527,1.252248
14434.141,161528,0.736650
14434.271,161529,1.779241
14439.041,161530,0.415493
14439.120,161531,2.029431
14452.047,161532,2.838779
14469.846,161533,2.787862
14469.970,161534,2.107827
14481.021,161535,2.758003
14481.099,161536,1.478205
14488.369,161537,-1210.098518
14513.653,161538,-1210.121958
14513.724,161539,-1210.573800
14520.373,161540,-1210.597095
14520.436,161541,-1210.477085
14531.985,161542,-1210.712490
14546.062,161543,-1210.874331
14546.143,161544,-1210.562477
14560.087,161545,-1210.606399
14560.225,161546,-1210.696262
14588.099,161547,-1210.599980
14588.200,161548,-1210.248747
14588.257,161549,-1210.567092
14602.085,161550,-1210.726193
14602.179,161551,-1210.470233
14618.283,161552,-1210.462588
14618.723,161553,-1210.028632
14624.963,161554,-1210.690781
14638.056,161555,-1210.386283
14638.144,161556,0.014280
14662.119,161557,-1210.130180
14662.981,161558,-1210.289208
14664.236,161559,-1210.324475
14688.003,161560,-1210.130468
14688.076,161561,-1210.272331
14710.075,161562,-1210.089936
14710.292,161563,-1210.179799
14710.436,161564,-1210.163428
14720.306,161565,-1210.259205
14720.387,161566,-1210.109192
14743.056,161567,-1210.199200
14743.158,161568,-1210.410300
14743.236,161569,-1210.508025
14767.902,161570,-1210.185569
14769.697,161571,-1210.633661
14774.079,161572,-1210.270456
14774.179,161573,-1210.421262
14800.080,161574,-1210.352891
14800.177,161575,-1210.230717
14800.253,161576,1.085863
14813.859,161577,3.408901
14813.989,161578,5.936043
14838.101,161579,8.106760
14838.194,161580,5.321711
14838.243,161581,0.405251
14865.574,161582,-1210.349501
14865.651,161583,0.239660
14871.942,161584,0.523098
14873.538,161585,0.054668
14885.995,161586,0.476508
14907.307,161587,0.712417
14907.487,161588,-1210.075944
14932.149,161589,1.727313
14932.290,161590,-1210.062241
14957.021,161591,-1210.009087
14957.094,161592,0.392847
14957.148,161593,1.107644
14984.074,161594,1.471065
14984.183,161595,1.062640
15000.017,161596,1.422815
15000.089,161597,2.108332
15000.143,161598,1.182939
15005.958,161599,2.414127
15006.034,161600,3.143565
15033.870,161601,3.228164
15035.762,161602,3.466959
15035.849,161603,3.413372
15057.240,161604,3.754291
15057.320,161605,3.525594
15086.035,161606,4.139854
15086.127,161607,3.528839
15086.194,161608,3.661831
15088.947,161609,3.429456
15089.012,161610,1.264797
15095.548,161611,1.663485
15095.744,161612,0.398544
15120.319,161613,-1210.038369
15145.199,161614,-1210.122535
15145.343,161615,0.174606
15145.443,161616,0.564280
15145.539,161617,-1210.293824
15179.797,161618,-1210.301324
15205.029,161619,-1210.001875
15205.220,161620,0.061087
15205.313,161621,-1210.355776
15205.402,161622,-1210.232809
15229.042,161623,-1210.103206
15259.092,161624,-1210.057553
15259.197,161625,-1210.124121
15259.263,161626,-1210.129819
15259.312,161627,-1210.084527
15270.018,161628,-1210.302118
15293.110,161629,-1210.132776
15293.298,161630,-1210.051423
15295.047,161631,-1210.270672
15295.118,161632,0.060149
15322.171,161633,-1210.088565
15322.355,161634,-1210.040316
15322.478,161635,-1210.043706
15345.105,161636,-1210.085825
15345.195,161637,0.004472
15357.032,161638,0.138474
15357.100,161639,-1210.142152
15357.152,161640,-1210.187660
15366.054,161641,-1210.225019
15366.293,161642,-1210.225596
15366.424,161643,-1210.259566
15366.604,161644,-1210.231366
15392.811,161645,-1210.212615
15417.074,161646,0.115827
15419.851,161647,0.954025
15419.914,161648,0.059933
15420.710,161649,3.184170
15444.150,161650,4.944154
15472.297,161651,7.778390
15474.646,161652,7.146676
15474.727,161653,1.973753
15474.802,161654,-1210.323826
15477.120,161655,-1210.240958
15482.121,161656,0.037359
15482.269,161657,-1210.189896
15507.100,161658,-1210.178068
15507.167,161659,-1210.351088
15508.967,161660,-1210.251632
15509.026,161661,-1210.360320
15509.074,161662,-1210.344381
15534.115,161663,-1210.147417
15534.197,161664,-1210.242329
15558.051,161665,-1210.232520
15558.141,161666,-1210.134002
15559.940,161667,-1210.128953
15578.034,161668,0.029858
15578.112,161669,-1210.047672
15580.003,161670,0.100105
15580.099,161671,0.031734
15606.076,161672,0.140349
15606.168,161673,0.502688
15606.236,161674,1.097980
15632.077,161675,0.989509
15632.172,161676,1.840760
15632.231,161677,2.869864
15659.108,161678,3.106206
15659.282,161679,3.019444
15659.410,161680,2.328303
15659.541,161681,1.283981
15687.163,161682,0.186651
15687.235,161683,0.040100
15687.285,161684,-1210.506294
15691.944,161685,-1210.555625
15692.012,161686,-1210.675058
15721.606,161687,-1210.823917
15721.691,161688,-1210.842236
15721.751,161689,-1210.999606
15742.163,161690,-1210.841299
15742.314,161691,-1210.948111
15770.746,161692,-1211.066607
15770.824,161693,-1210.866686
15770.886,161694,-1210.988138
15790.575,161695,-1210.918541
15790.660,161696,-1210.966502
15815.120,161697,-1211.041508
15815.289,161698,-1210.878225
15815.376,161699,-1211.061847
15842.041,161700,-1210.987778
15842.166,161701,-1211.066823
15842.252,161702,-1211.149114
15842.334,161703,-1210.799396
15872.952,161704,-1211.020737
15873.040,161705,-1210.846419
15873.108,161706,-1210.926114
15883.948,161707,-1211.108149
15884.035,161708,-1210.732828
15884.101,161709,-1210.898924
15907.135,161710,-1210.835096
15907.241,161711,-1210.921642
15932.260,161712,-1211.107860
15932.343,161713,-1210.950058
15932.410,161714,-1211.258955
15957.127,161715,-1211.095239
15957.222,161716,-1211.081103
15972.016,161717,-1211.192387
15972.089,161718,-1210.978907
15973.926,161719,-1211.258595
15973.991,161720,-1211.076343
15974.053,161721,-1210.013415
15998.022,161722,3.294588
15998.105,161723,6.075454
15999.929,161724,8.363080
16000.021,161725,5.406093
16025.640,161726,-1210.441889
16052.053,161727,-1211.064732
16052.236,161728,-1210.407487
16052.323,161729,-1210.725760
16052.388,161730,-1210.731169
16082.078,161731,-1210.871878
16086.937,161732,-1211.019872
16113.868,161733,-1210.832284
16113.964,161734,-1211.021747
16114.024,161735,-1210.877287
16114.080,161736,-1210.999606
16138.156,161737,-1211.155244
16138.278,161738,-1210.966141
16168.736,161739,-1210.992249
16168.855,161740,-1211.061919
16168.916,161741,-1210.867046
16178.147,161742,-1211.024560
16178.324,161743,-1210.731385
16203.365,161744,-1210.655513
16203.557,161745,-1210.648662
16205.130,161746,-1210.410084
16205.209,161747,-1210.553101
16205.275,161748,-1210.247954
16230.065,161749,-1210.190978
16230.154,161750,-1210.141214
16230.218,161751,0.141791
16230.280,161752,0.040965
16256.305,161753,0.182107
16256.360,161754,-1210.028560
16256.399,161755,-1210.271610
16282.394,161756,-1210.440303
16282.638,161757,-1210.955539
16282.823,161758,-1210.948976
16308.025,161759,-1211.116371
16308.102,161760,-1211.280592
16309.946,161761,-1211.210057
16309.999,161762,-1211.466593
16335.990,161763,-1211.307854
16369.737,161764,-1211.334106
16369.818,161765,-1211.385240
16369.875,161766,-1211.197940
16369.934,161767,-1211.452313
16398.118,161768,-1211.307637
16399.963,161769,-1211.324514
16400.026,161770,-1211.385024
16425.135,161771,-1211.203782
16425.315,161772,-1211.392885
16453.238,161773,-1211.270855
16453.332,161774,-1211.399160
16453.376,161775,-1211.410050
16461.184,161776,-1211.141830
16461.243,161777,-1211.247632
16461.286,161778,-1211.200320
16461.330,161779,-1211.311820
16461.373,161780,-1211.179982
16487.558,161781,-1211.042085
16487.645,161782,-1211.297684
16487.707,161783,-1211.159860
16487.817,161784,-1211.310955
16512.077,161785,-1211.441928
16538.036,161786,-1211.325740
16538.108,161787,-1211.554221
16538.160,161788,-1211.455414
16538.212,161789,-1211.494360
16575.115,161790,-1211.473589
16576.376,161791,-1211.295881
16576.443,161792,-1211.364902
16576.506,161793,0.115322
16576.567,161794,3.446693
16602.111,161795,6.310787
16627.555,161796,9.069872
16627.632,161797,4.803373
16627.692,161798,-1210.762253
16627.747,161799,-1210.953664
16652.621,161800,-1210.596662
16681.937,161801,-1210.508457
16682.005,161802,-1210.806753
16682.060,161803,-1210.656740
16682.113,161804,-1210.674481
16709.115,161805,-1210.707441
16709.224,161806,-1210.468863
16709.311,161807,-1210.526704
16734.008,161808,-1210.198262
16734.097,161809,-1210.213192
16770.381,161810,-1210.110995
16770.454,161811,0.144676
16770.508,161812,0.386139
16776.037,161813,1.777870
16776.128,161814,2.579142
16776.205,161815,2.693382
16776.267,161816,3.046634
16801.217,161817,3.011222
16826.019,161818,3.384884
16826.089,161819,3.531652
16826.138,161820,3.748954
16826.181,161821,4.111510
16852.119,161822,4.108841
16877.002,161823,4.401511
16877.080,161824,4.415863
16877.137,161825,4.440817
16877.192,161826,4.466420
16903.313,161827,4.044653
16928.065,161828,3.955943
16928.149,161829,3.754003
16929.916,161830,3.675462
16929.989,161831,3.814657
16960.088,161832,3.687363
16960.147,161833,3.705826
16960.189,161834,3.840405
16961.960,161835,3.845165
16962.017,161836,4.099826
16967.267,161837,4.134661
16968.337,161838,4.175770
16968.423,161839,4.436418
16991.976,161840,4.384346
16992.041,161841,4.654369
17020.092,161842,4.679468
17020.169,161843,4.696488
17020.226,161844,4.955333
17044.337,161845,4.856959
17044.435,161846,5.068275
17069.342,161847,5.048658
17069.416,161848,5.085729
17069.469,161849,5.284640
17090.203,161850,5.212446
17090.283,161851,5.454631
17090.341,161852,5.495596
17090.397,161853,5.597648
17120.040,161854,5.832692
17141.109,161855,5.700566
17141.250,161856,5.945202
17141.379,161857,6.008886
17141.506,161858,5.981696
17172.015,161859,6.099543
17178.193,161860,5.953208
17178.312,161861,6.085407
17178.397,161862,6.042927
17178.478,161863,6.070189
17203.302,161864,6.231958
17203.382,161865,5.999005
17205.195,161866,6.198782
17230.237,161867,6.168347
17230.325,161868,6.186738
17261.193,161869,6.559534
17261.254,161870,7.542913
17261.294,161871,9.250681
17288.055,161872,12.675809
17288.147,161873,13.753162
17312.002,161874,9.093600
17312.074,161875,6.395458
17312.127,161876,6.806046
17339.129,161877,7.014189
17339.216,161878,6.794434
17364.158,161879,6.702479
17364.242,161880,6.477316
17364.306,161881,6.599057
17378.062,161882,6.672549
17378.167,161883,6.668222
17385.063,161884,6.855954
17385.167,161885,6.837347
17385.248,161886,6.963920
17411.196,161887,6.921513
17411.349,161888,7.016858
17437.294,161889,7.205600
17437.406,161890,7.124824
17437.463,161891,7.321644
17437.518,161892,7.283635
17437.565,161893,7.399535
17470.355,161894,7.385327
17470.464,161895,7.307436
17477.320,161896,7.576810
17477.391,161897,7.781996
17501.956,161898,7.965329
17527.862,161899,8.182992
17527.975,161900,8.066732
17528.063,161901,8.196912
17528.150,161902,8.052957
17552.519,161903,7.827360
17580.023,161904,7.553010
17580.187,161905,7.031570
17580.282,161906,6.902112
17580.359,161907,3.065746
17586.981,161908,2.154345
17613.836,161909,2.256614
17614.452,161910,1.996615
17637.064,161911,2.061597
17637.179,161912,2.063688
17637.386,161913,1.996759
17664.039,161914,2.093691
17664.125,161915,1.975267
17680.002,161916,2.105447
17680.089,161917,2.052437
17680.158,161918,2.058928
17680.224,161919,2.133214
17680.291,161920,1.911944
17683.938,161921,1.989836
17684.006,161922,1.953126
17709.134,161923,1.951179
17709.285,161924,2.015872
17709.414,161925,1.939278
17735.041,161926,1.995822
17735.118,161927,1.921969
17761.278,161928,1.879850
17761.395,161929,1.965314
17761.473,161930,1.940865
17782.226,161931,1.959473
17782.312,161932,2.078040
17788.065,161933,1.975267
17788.223,161934,2.056837
17813.976,161935,2.092104
17838.070,161936,2.066573
17838.162,161937,2.061020
17838.231,161938,1.848549
17838.388,161939,1.947572
17864.649,161940,1.848189
17893.124,161941,1.794170
17893.244,161942,1.863623
17893.331,161943,1.730991
17893.416,161944,1.925936
17899.591,161945,1.768278
17899.741,161946,1.823668
17899.863,161947,2.136675
17924.030,161948,3.060265
17924.111,161949,4.817364
17949.026,161950,8.272062
17949.124,161951,9.346098
17949.200,161952,4.586359
17980.038,161953,1.829509
17980.128,161954,2.209879
17986.343,161955,2.458482
17986.480,161956,2.208292
17986.584,161957,2.237069
18014.570,161958,2.102850
18014.663,161959,2.226683
18014.735,161960,2.171077
18040.926,161961,2.171654
18041.030,161962,2.390544
18066.451,161963,2.263177
18066.679,161964,2.463531
18066.751,161965,2.487980
18066.829,161966,2.455092
18085.093,161967,2.627824
18090.968,161968,2.597316
18091.047,161969,2.821542
18118.882,161970,2.815917
18119.039,161971,2.939317
18142.069,161972,3.132459
18142.142,161973,3.090051
18142.197,161974,3.401400
18168.586,161975,3.417556
18168.662,161976,3.601394
18186.112,161977,3.730419
18186.228,161978,3.668755
18186.310,161979,3.837880
18186.390,161980,3.704239
18186.486,161981,3.475253
18212.371,161982,3.307065
18212.569,161983,2.888688
18212.699,161984,2.763629
18238.153,161985,2.485239
18238.388,161986,2.402299
18263.965,161987,2.413045
18264.212,161988,2.216730
18264.933,161989,2.392851
18276.865,161990,2.270317
18277.239,161991,2.315032
18301.070,161992,2.415786
18301.185,161993,2.220481
18301.277,161994,2.362993
18335.683,161995,2.252431
18335.769,161996,2.233174
18335.838,161997,2.297290
18335.896,161998,2.205191
18345.936,161999,2.270822
18346.006,162000,2.154994
18346.072,162001,2.117058
18351.938,162002,2.183122
18351.993,162003,2.046307
18353.873,162004,2.208148
18353.931,162005,2.092898
18353.985,162006,2.077103
18355.959,162007,2.126218
18356.029,162008,2.039528
18381.262,162009,2.172159
18381.387,162010,2.107538
18381.453,162011,2.021858
18407.142,162012,2.203244
18407.222,162013,2.047677
18431.090,162014,2.089796
18431.165,162015,1.884033
18431.220,162016,1.804411
18462.210,162017,1.871340
18468.073,162018,1.653965
18470.798,162019,1.775490
18470.861,162020,1.690242
18470.917,162021,1.653100
18495.075,162022,1.714547
18495.163,162023,1.630382
18522.646,162024,1.603480
18522.760,162025,2.405833
18522.860,162026,3.392890
18522.952,162027,6.145196
18523.149,162028,9.108240
18547.080,162029,6.301627
18547.189,162030,2.127804
18572.057,162031,1.364974
18572.158,162032,2.028709
18572.212,162033,1.846602
18583.718,162034,1.685915
18583.820,162035,1.748012
18608.310,162036,1.516285
18608.407,162037,1.646753
18632.043,162038,1.571025
18632.130,162039,1.537994
18632.197,162040,1.687358
18658.142,162041,1.564823
18658.224,162042,1.723346
18685.226,162043,1.669688
18685.357,162044,1.661250
18685.442,162045,1.828355
18712.158,162046,1.725294
18712.559,162047,1.930191
18737.208,162048,1.887279
18737.351,162049,1.974907
18737.411,162050,2.113452
18763.865,162051,2.062751
18764.165,162052,2.307892
18792.229,162053,2.244497
18792.411,162054,2.395881
18792.601,162055,2.532623
18821.704,162056,2.391986
18821.837,162057,2.513222
18821.901,162058,2.246156
18843.070,162059,1.939062
18843.175,162060,1.721760
18879.863,162061,1.379975
18882.900,162062,1.282034
18885.876,162063,3.089258
18894.889,162064,3.123083
18913.965,162065,3.166861
18918.386,162066,3.204652
18927.958,162067,3.128564
18928.707,162068,2.938379
18930.453,162069,2.898063
18931.900,162070,2.959655
18935.143,162071,2.805459
18935.266,162072,2.913065
18969.026,162073,2.840871
18970.301,162074,2.801565
18970.753,162075,2.827673
18970.965,162076,2.663019
18971.103,162077,2.732977
18996.041,162078,2.665111
18996.130,162079,2.586354
18996.198,162080,2.628040
19023.561,162081,2.465911
19023.664,162082,2.598831
19047.235,162083,2.471825
19047.365,162084,2.490865
19047.434,162085,2.573877
19071.170,162086,2.406915
19072.569,162087,2.515819
19087.157,162088,2.461223
19087.251,162089,2.370205
19101.001,162090,2.385134
19101.072,162091,2.123044
19101.128,162092,2.243055
19127.063,162093,1.991999
19127.151,162094,1.997192
19153.000,162095,2.037652
19153.089,162096,1.880283
19153.152,162097,1.968343
19170.932,162098,1.844222
19171.016,162099,1.876316
19174.929,162100,2.672755
19175.005,162101,5.452107
19175.075,162102,8.846872
19202.030,162103,11.668053
19202.113,162104,8.290453
19202.191,162105,2.136964
19202.253,162106,1.524002
19228.136,162107,2.228847
19254.152,162108,2.017458
19254.246,162109,1.896005
19254.310,162110,1.875956
19254.395,162111,1.688223
19281.159,162112,1.829942
19285.687,162113,1.717288
19285.768,162114,1.739790
19285.832,162115,1.832683
19285.966,162116,1.699690
19311.551,162117,1.897376
19311.700,162118,1.798353
19311.760,162119,1.760561
19338.126,162120,1.983778
19338.239,162121,1.902496
19366.111,162122,1.993586
19366.271,162123,2.133718
19369.361,162124,2.063472
19374.938,162125,2.297651
19374.998,162126,2.281856
19400.029,162127,2.370205
19400.110,162128,2.514088
19400.171,162129,2.466776
19426.046,162130,0.748334
19460.166,162131,0.390971
19460.381,162132,0.388952
19460.497,162133,0.308392
19460.535,162134,0.051206
19468.764,162135,-1210.208143
19468.883,162136,1.141613
19492.147,162137,0.741987
19492.309,162138,0.357074
19517.658,162139,1.074901
19517.733,162140,-1210.964915
19517.796,162141,-1210.465401
19543.190,162142,-1211.009991
19543.292,162143,-1211.145436
19557.294,162144,-1211.196354
19557.456,162145,-1211.175583
19557.527,162146,-1211.300281
19572.264,162147,-1211.270350
19572.373,162148,-1211.269701
19591.828,162149,-1211.396780
19592.135,162150,-1211.224337
19592.356,162151,-1211.343554
19615.919,162152,-1211.387837
19616.287,162153,-1211.311676
19616.350,162154,-1211.484624
19616.411,162155,-1211.355165
19645.322,162156,-1211.500563
19645.409,162157,-1211.518160
19645.473,162158,-1211.478349
19672.340,162159,-1211.630093
19672.453,162160,-1211.515997
19672.559,162161,-1211.646176
19698.263,162162,-1211.583286
19698.429,162163,-1211.509217
19698.557,162164,-1211.625477
19698.682,162165,-1211.494649
19724.281,162166,-1211.609034
19724.436,162167,-1211.543114
19724.530,162168,-1211.551192
19753.081,162169,-1211.724717
19753.169,162170,-1211.687358
19753.227,162171,-1211.842563
19761.041,162172,-1211.876533
19761.111,162173,-1211.860233
19761.171,162174,-1212.015150
19761.223,162175,-1211.865642
19786.044,162176,-1211.948294
19786.114,162177,-1211.981037
19786.166,162178,-1211.857493
19811.097,162179,-1211.194767
19811.209,162180,0.239444
19837.372,162181,3.077141
19838.382,162182,5.490836
19838.720,162183,1.619275
19871.708,162184,-1211.856050
19872.761,162185,-1211.953631
19879.702,162186,-1211.611991
19879.817,162187,-1211.701277
19889.767,162188,-1211.711302
19889.871,162189,-1211.930840
19889.930,162190,-1211.811767
19889.987,162191,-1211.924494
19890.042,162192,-1211.889875
19925.372,162193,-1211.782414
19942.105,162194,-1211.893265
19942.199,162195,-1211.701854
19959.226,162196,-1211.772966
19959.315,162197,-1211.683030
19968.023,162198,-1211.589272
19968.244,162199,-1211.667596
19968.679,162200,-1211.468613
19992.069,162201,-1211.488013
19992.171,162202,-1211.367642
19992.248,162203,-1211.291410
20018.776,162204,-1211.272875
20019.383,162205,-1211.083988
20043.333,162206,-1211.085719
20043.559,162207,-1210.955107
20045.978,162208,-1210.868056
20046.051,162209,-1210.876927
20046.110,162210,-1210.680323
20067.532,162211,-1210.840289
20067.627,162212,-1210.927196
20070.391,162213,-1211.091705
20070.455,162214,-1211.299776
20070.513,162215,-1211.551048
20072.033,162216,-1211.659951
20072.149,162217,-1211.988754
20098.075,162218,-1211.941226
20098.167,162219,-1212.108332
20123.024,162220,-1212.070251
20123.105,162221,-1212.040970
20123.164,162222,-1212.180670
20147.987,162223,-1212.081719
20148.071,162224,-1212.171943
20181.150,162225,-1212.114462
20181.232,162226,-1212.034263
20181.291,162227,-1212.231227
20181.922,162228,-1212.064554
20181.999,162229,-1212.199638
20207.111,162230,-1212.156004
20207.206,162231,-1212.122972
20207.266,162232,-1212.294405
20233.074,162233,-1212.113885
20233.167,162234,-1212.278106
20257.155,162235,-1212.262167
20257.257,162236,-1212.233895
20257.323,162237,-1212.402588
20277.157,162238,-1212.231732
20277.241,162239,-1212.380663
20283.001,162240,-1212.341284
20283.110,162241,-1212.301473
20283.204,162242,-1212.432518
20309.030,162243,-1212.315321
20309.116,162244,-1212.449683
20335.130,162245,-1212.415065
20335.303,162246,-1212.379725
20335.417,162247,-1212.533344
20360.179,162248,-1212.357223
20360.340,162249,-1212.502909
20360.472,162250,-1212.430427
20360.600,162251,-1212.345972
20388.063,162252,-1212.373595
20391.998,162253,-1212.329312
20392.131,162254,-1212.477666
20392.260,162255,-1212.318638
20392.385,162256,-1212.209374
20420.686,162257,-1212.426099
20420.767,162258,-1212.296497
20423.311,162259,-1212.503774
20446.040,162260,-1212.493317
20446.124,162261,-1212.521084
20470.020,162262,-1212.636983
20470.099,162263,-1212.528873
20470.156,162264,-1212.630348
20501.270,162265,-1212.625444
20501.372,162266,-1212.570054
20506.035,162267,-1212.596811
20506.116,162268,-1211.563236
20506.194,162269,-1210.439870
20508.052,162270,2.694897
20508.137,162271,4.916171
20535.024,162272,0.585844
20535.108,162273,-1212.307604
20535.161,162274,-1212.438432
20561.174,162275,-1212.126578
20561.280,162276,-1211.319682
20591.473,162277,-1210.369407
20591.637,162278,-1212.240819
20591.761,162279,-1210.505861
20598.302,162280,-1210.633444
20598.381,162281,-1210.816633
20598.440,162282,-1210.271249
20598.496,162283,-1210.146118
20626.254,162284,-1210.110058
20626.408,162285,-1210.025243
20626.521,162286,0.056832
20651.133,162287,-1210.020843
20651.221,162288,0.118424
20651.273,162289,0.171361
20678.006,162290,0.160903
20678.090,162291,0.227039
20678.150,162292,0.275937
20678.200,162293,0.377629
20694.031,162294,0.484152
20694.113,162295,0.469079
20694.173,162296,0.142657
20694.232,162297,0.693738
20694.290,162298,-1210.114746
20722.732,162299,0.819662
20722.826,162300,0.747757
20722.890,162301,0.492879
20747.159,162302,0.540119
20747.312,162303,0.505428
20747.416,162304,0.179799
20747.509,162305,0.029642
20782.069,162306,-1210.014064
20782.160,162307,-1210.272836
20782.229,162308,-1210.135156
20808.169,162309,-1210.174102
20808.249,162310,-1210.305363
20810.082,162311,-1210.203383
20836.028,162312,-1210.297069
20836.137,162313,-1210.277019
20864.092,162314,-1210.222495
20864.165,162315,-1210.339188
20864.221,162316,-1210.174318
20871.979,162317,-1210.277740
20872.150,162318,-1210.294473
20897.044,162319,-1210.283871
20897.125,162320,-1210.382677
20928.345,162321,-1210.219682
20928.460,162322,-1210.384480
20928.646,162323,-1210.343443
20946.175,162324,-1210.291948
20946.326,162325,-1210.444413
20961.208,162326,-1210.335438
20961.276,162327,-1210.455376
20961.323,162328,-1210.411598
20969.344,162329,-1210.371499
20971.388,162330,-1210.545816
20971.568,162331,-1210.378206
20971.633,162332,-1210.513218
20995.115,162333,-1210.478743
21020.104,162334,-1210.461290
21020.207,162335,-1210.600990
21020.305,162336,-1210.425806
21020.372,162337,-1210.534854
21046.207,162338,-1210.526416
21070.886,162339,-1210.474849
21070.969,162340,-1210.622121
21071.027,162341,-1210.471748
21071.082,162342,-1210.563991
21072.916,162343,-1210.532546
21072.979,162344,-1210.455592
21073.032,162345,-1210.514588
21099.259,162346,-1210.343010
21099.420,162347,-1210.508457
21099.553,162348,-1210.447875
21099.681,162349,-1210.297718
21125.052,162350,-1210.453357
21150.137,162351,-1210.367748
21150.283,162352,-1210.532979
21150.402,162353,-1210.512064
21150.501,162354,-1210.517184
21150.544,162355,-1210.709028
21181.075,162356,-1210.579209
21181.185,162357,-1210.704773
21181.252,162358,-1210.668063
21186.144,162359,-1210.613250
21186.235,162360,-1210.738742
21190.127,162361,-1210.008727
21190.249,162362,1.022396
21216.881,162363,2.414344
21216.956,162364,4.449039
21219.475,162365,2.743363
21241.069,162366,0.162634
21241.128,162367,-1210.752084
21241.169,162368,-1210.207710
21241.209,162369,-1210.197685
21272.990,162370,-1210.488191
21273.067,162371,-1210.384120
21273.124,162372,-1210.506943
21299.022,162373,-1210.467997
21299.097,162374,-1210.392053
21299.153,162375,-1210.487686
21326.066,162376,-1210.317984
21326.175,162377,-1210.399337
21351.153,162378,-1210.264182
21351.239,162379,-1210.190113
21351.305,162380,-1210.266057
21351.369,162381,-1210.078540
21351.431,162382,-1210.110562
21372.085,162383,-1210.004760
21372.200,162384,0.075079
21372.314,162385,0.066280
21372.476,162386,0.276154
21379.934,162387,0.215211
21379.988,162388,0.360392
21380.034,162389,0.508890
21406.097,162390,0.412824
21406.179,162391,0.652052
21431.035,162392,0.564208
21431.134,162393,0.646066
21431.214,162394,0.666187
21457.294,162395,0.370561
21457.383,162396,0.363349
21473.067,162397,0.020266
21473.150,162398,-1210.111139
21473.212,162399,-1210.197469
21477.069,162400,-1210.410661
21477.154,162401,-1210.349141
21502.154,162402,-1210.498360
21502.253,162403,-1210.512496
21502.331,162404,-1210.469872
21530.028,162405,-1210.546393
21530.110,162406,-1210.495259
21555.260,162407,-1210.366378
21555.414,162408,-1210.559736
21555.516,162409,-1210.370777
21582.126,162410,-1210.516030
21582.217,162411,-1210.507087
21586.924,162412,-1210.431215
21586.993,162413,-1210.543941
21587.051,162414,-1210.385057
21615.243,162415,-1210.552163
21616.325,162416,-1210.487759
21616.706,162417,-1210.466050
21617.164,162418,-1210.593200
21639.993,162419,-1210.464247
21667.854,162420,-1210.647075
21668.058,162421,-1210.533051
21668.527,162422,-1210.534638
21668.577,162423,-1210.685660
21696.038,162424,-1210.503337
21704.482,162425,-1210.633012
21704.678,162426,-1210.563631
21728.220,162427,-1210.596374
21728.348,162428,-1210.730304
21753.445,162429,-1210.609500
21755.175,162430,-1210.699724
21755.253,162431,-1210.671308
21784.292,162432,-1210.563342
21784.380,162433,-1210.707008
21784.443,162434,-1210.560962
21789.223,162435,-1210.669938
21789.345,162436,-1210.527353
21816.507,162437,-1210.506582
21819.485,162438,-1210.578776
21819.552,162439,-1210.383543
21819.607,162440,-1210.755546
21819.659,162441,-1210.854858
21841.139,162442,-1210.757782
21841.220,162443,-1210.770908
21870.091,162444,-1210.693594
21870.162,162445,-1210.585483
21870.216,162446,-1210.472685
21896.096,162447,-1210.446577
21896.152,162448,-1210.684290
21900.991,162449,-1210.344597
21901.049,162450,-1210.389890
21901.103,162451,-1210.302478
21927.183,162452,-1210.531104
21927.269,162453,-1210.785260
21927.334,162454,-1210.601711
21927.394,162455,-1210.735929
21953.179,162456,-1210.529878
21985.071,162457,-1210.708379
21985.196,162458,-1210.828822
21985.265,162459,-1210.670948
21985.326,162460,-1210.762398
21990.990,162461,-1210.464463
21991.059,162462,0.603586
21991.114,162463,1.907906
22020.774,162464,3.187199
22020.852,162465,3.728111
22020.906,162466,1.243449
22020.959,162467,-1210.712634
22021.011,162468,-1210.568968
22044.135,162469,-1210.136454
22044.215,162470,-1210.402367
22069.427,162471,-1210.448957
22069.494,162472,-1210.511270
22097.127,162473,-1210.623852
22097.195,162474,-1210.380874
22097.243,162475,-1210.504491
22100.009,162476,-1210.465112
22100.091,162477,-1210.393279
22107.168,162478,-1210.433956
22132.580,162479,-1210.280265
22132.719,162480,-1210.338683
22157.163,162481,-1210.203455
22157.263,162482,-1210.079911
22157.341,162483,-1210.140421
22184.702,162484,0.010386
22184.831,162485,-1210.060654
22210.046,162486,0.079478
22210.105,162487,0.225885
22210.149,162488,0.208720
22236.077,162489,0.421551
22236.188,162490,0.337241
22236.258,162491,0.479753
22236.320,162492,0.543220
22262.472,162493,0.448308
22263.623,162494,0.646787
22263.860,162495,0.431215
22287.070,162496,0.369840
22287.205,162497,0.158884
22312.191,162498,-1210.158523
22312.264,162499,-1210.144820
22312.323,162500,-1210.239372
22327.059,162501,-1210.496413
22327.174,162502,-1210.368614
22327.266,162503,-1210.557717
22327.363,162504,-1210.564063
22335.459,162505,-1210.473262
22360.051,162506,-1210.624862
22360.124,162507,-1210.425301
22385.079,162508,-1210.584762
22385.166,162509,-1210.484297
22385.225,162510,-1210.490932
22417.132,162511,-1210.636401
22421.131,162512,-1210.439076
22421.208,162513,-1210.617073
22421.268,162514,-1210.515742
22421.325,162515,-1210.532185
22421.382,162516,-1210.692368
22421.438,162517,-1210.525767
22449.405,162518,-1210.716961
22449.497,162519,-1210.640656
22449.566,162520,-1210.623636
22473.187,162521,-1210.771846
22473.308,162522,-1210.601567
22499.160,162523,-1210.789804
22499.442,162524,-1210.716528
22502.408,162525,-1210.673544
22502.517,162526,-1210.843390
22502.618,162527,-1210.632651
22529.980,162528,-1210.712778
22530.052,162529,-1210.721793
22534.900,162530,-1210.741699
22534.961,162531,-1210.768240
22535.009,162532,-1210.763335
22559.874,162533,-1210.952150
22560.048,162534,-1210.864594
22586.159,162535,-1210.843535
22586.297,162536,-1210.929936
22586.353,162537,-1210.683280
22614.158,162538,-1210.814253
22614.272,162539,-1210.628179
22624.010,162540,-1210.574665
22624.094,162541,-1210.824855
22624.158,162542,-1210.636834
22625.888,162543,-1210.896400
22625.945,162544,-1210.848872
22652.156,162545,-1210.868200
22652.388,162546,-1211.026291
22652.572,162547,-1210.825648
22652.680,162548,-1211.029104
22652.746,162549,-1210.893082
22677.115,162550,-1210.905415
22677.190,162551,-1210.930081
22677.245,162552,0.257402
22677.298,162553,2.795723
22677.350,162554,6.862301
22703.246,162555,7.739156
22703.413,162556,1.770514
22706.740,162557,-1210.874042
22706.833,162558,-1210.757421
22721.264,162559,-1210.461651
22721.430,162560,-1210.578055
22721.492,162561,-1210.822619
22728.002,162562,-1210.613106
22728.068,162563,-1210.828966
22730.012,162564,-1210.717754
22755.061,162565,-1210.681982
22755.232,162566,-1210.832067
22780.039,162567,-1210.564640
22780.140,162568,-1210.759224
22780.214,162569,-1210.625511
22806.178,162570,-1210.553750
22806.268,162571,-1210.669361
22826.457,162572,-1210.435038
22827.068,162573,-1210.652989
22827.271,162574,-1210.477229
22835.032,162575,-1210.302694
22835.125,162576,-1210.325846
22835.198,162577,-1210.012982
22836.344,162578,-1210.167178
22854.057,162579,0.020699
22854.152,162580,0.149220
22854.220,162581,0.010169
22879.760,162582,0.345390
22879.890,162583,0.120804
22903.407,162584,0.266273
22903.579,162585,0.196243
22922.647,162586,-1210.193502
22922.778,162587,-1210.146407
22922.866,162588,-1210.545744
22927.068,162589,-1210.575747
22927.176,162590,-1210.724534
22927.257,162591,-1211.015040
22954.301,162592,-1210.894813
22954.410,162593,-1211.213014
22954.498,162594,-1210.975589
22954.583,162595,-1210.820311
22981.101,162596,-1210.989437
23006.488,162597,-1210.883201
23006.643,162598,-1210.787424
23006.770,162599,-1210.990518
23006.906,162600,-1210.787280
23025.883,162601,-1210.959650
23029.262,162602,-1210.954025
23029.563,162603,-1210.872239
23030.267,162604,-1211.133896
23030.321,162605,-1210.775884
23055.954,162606,-1210.958208
23056.091,162607,-1210.907434
23056.147,162608,-1210.847862
23084.588,162609,-1211.067184
23084.667,162610,-1210.722226
23084.727,162611,-1211.144931
23084.790,162612,-1211.110962
23084.849,162613,-1210.921282
23109.297,162614,-1211.154090
23109.386,162615,-1210.914430
23135.796,162616,-1211.215971
23135.892,162617,-1210.992466
23135.954,162618,-1210.948472
23136.012,162619,-1211.112692
23136.070,162620,-1210.775380
23155.950,162621,-1210.997226
23156.021,162622,-1210.821682
23190.415,162623,-1210.863007
23190.579,162624,-1210.931884
23190.694,162625,-1210.604523
23206.051,162626,-1211.259821
23206.156,162627,-1210.952655
23237.080,162628,-1211.123366
23237.144,162629,-1211.339803
23237.191,162630,-1210.939889
23243.009,162631,-1211.294151
23243.089,162632,-1211.280159
23243.153,162633,-1211.208326
23270.959,162634,-1211.279149
23271.037,162635,-1211.051605
23271.094,162636,-1211.153513
23271.148,162637,0.316470
23296.051,162638,3.586681
23296.130,162639,6.207941
23296.188,162640,6.011266
23321.540,162641,-1210.455160
23321.628,162642,-1211.387187
23348.105,162643,-1211.096826
23348.164,162644,-1211.098629
23348.206,162645,-1210.897770
23374.113,162646,-1211.222029
23374.240,162647,-1211.125170
23398.045,162648,-1211.003572
23398.132,162649,-1211.253113
23400.015,162650,-1210.908949
23426.050,162651,-1211.157769
23426.158,162652,-1210.974147
23451.722,162653,-1210.887529
23451.811,162654,-1211.078867
23451.950,162655,-1210.725832
23471.746,162656,-1210.937509
23471.846,162657,-1210.732323
23471.901,162658,-1210.672534
23471.950,162659,-1210.707585
23471.998,162660,-1210.347338
23498.124,162661,-1210.608562
23498.203,162662,-1210.319932
23524.045,162663,-1210.273485
23524.249,162664,-1210.340991
23524.432,162665,0.061159
23524.533,162666,1.073819
23552.067,162667,1.022252
23558.921,162668,0.025170
23558.976,162669,-1210.287333
23559.027,162670,-1210.268509
23559.076,162671,-1210.738237
23559.125,162672,-1210.848439
23587.352,162673,-1211.016626
23587.438,162674,-1211.358122
23587.501,162675,-1211.301435
23587.562,162676,-1211.501500
23611.982,162677,-1211.364974
23643.032,162678,-1211.404352
23643.119,162679,-1211.591580
23643.183,162680,-1211.374133
23643.245,162681,-1211.641560
23650.110,162682,-1211.468613
23650.219,162683,-1211.503664
23650.312,162684,-1211.726952
23676.419,162685,-1211.437600
23676.512,162686,-1211.764167
23701.229,162687,-1211.638026
23701.319,162688,-1211.608817
23701.380,162689,-1211.878264
23728.217,162690,-1211.560640
23730.169,162691,-1211.655119
23743.909,162692,-1211.824605
23744.058,162693,-1211.617400
23744.173,162694,-1211.864488
23777.071,162695,-1211.788039
23777.175,162696,-1211.835928
23777.243,162697,-1211.717865
23777.308,162698,-1211.759551
23777.372,162699,-1211.950529
23831.846,162700,-1211.821864
23831.951,162701,-1211.792078
23832.005,162702,-1211.935312
23832.056,162703,-1211.712817
23832.107,162704,-1211.996976
23840.158,162705,-1211.797343
23840.328,162706,-1211.857853
23865.325,162707,-1212.106673
23865.417,162708,-1211.857276
23890.101,162709,-1212.180742
23890.240,162710,-1212.150162
23890.324,162711,-1212.171871
23918.714,162712,-1212.380086
23918.805,162713,-1212.082728
23918.866,162714,-1212.372008
23937.022,162715,-1212.276303
23937.106,162716,-1212.234617
23937.168,162717,-1211.847107
23937.227,162718,-1210.462228
23938.938,162719,3.570237
23964.970,162720,6.212629
23965.161,162721,3.581704
23988.118,162722,-1211.939639
23988.247,162723,-1212.228630
23990.193,162724,-1211.982119
23990.357,162725,-1211.893409
23990.488,162726,-1211.936610
24018.857,162727,-1212.136892
24018.938,162728,-1211.948943
24030.728,162729,-1212.111072
24030.848,162730,-1211.995173
24030.922,162731,-1211.926080
24053.059,162732,-1211.964665
24053.146,162733,-1211.745920
24053.208,162734,-1211.884250
24053.265,162735,-1211.791573
24079.637,162736,-1211.663702
24103.137,162737,-1211.739718
24103.287,162738,-1211.542826
24105.917,162739,-1211.692550
24105.982,162740,-1211.470704
24122.818,162741,-1211.351992
24122.901,162742,-1211.369806
24122.961,162743,-1211.200392
24129.005,162744,-1211.126107
24129.140,162745,-1211.045980
24129.248,162746,-1210.917315
24155.107,162747,-1210.989869
24155.222,162748,-1210.822619
24180.056,162749,-1210.892217
24180.157,162750,-1210.962319
24180.221,162751,-1211.252681
24180.273,162752,-1211.567275
24180.324,162753,-1211.658653
24207.227,162754,-1211.917209
24207.322,162755,-1212.005126
24236.400,162756,-1211.723923
24236.475,162757,-1212.104581
24236.528,162758,-1212.101841
24236.578,162759,-1212.208797
24236.636,162760,-1212.101480
24262.115,162761,-1212.169419
24262.226,162762,-1212.279476
24262.293,162763,-1212.214134
24288.059,162764,-1212.209807
24288.165,162765,-1212.223582
24320.971,162766,-1212.229857
24321.055,162767,-1212.501971
24321.112,162768,-1212.356574
24326.967,162769,-1212.355637
24327.060,162770,-1212.348208
24352.003,162771,-1212.320730
24352.068,162772,-1212.507453
24352.117,162773,-1212.303998
24379.046,162774,-1212.399414
24379.144,162775,-1212.316979
24403.128,162776,-1212.461367
24403.275,162777,-1212.490143
24405.212,162778,-1212.357368
24418.066,162779,-1212.362993
24418.205,162780,-1212.309262
24441.081,162781,-1212.334505
24441.158,162782,-1212.164082
24441.201,162783,-1212.233535
24441.244,162784,-1212.454588
24441.286,162785,-1212.386505
24469.476,162786,-1212.257335
24471.271,162787,-1210.436624
24495.243,162788,-1212.116986
24495.389,162789,-1212.567386
24495.509,162790,-1212.323831
24507.210,162791,-1212.700522
24507.384,162792,-1211.272514
24532.051,162793,-1212.122107
24532.150,162794,-1210.804012
24532.224,162795,-1211.412069
24558.345,162796,-1211.158273
24558.444,162797,2.420258
24584.970,162798,6.071343
24585.053,162799,4.254815
24585.112,162800,-1212.000582
24613.824,162801,-1212.748267
24613.922,162802,-1212.347487
24613.996,162803,-1212.173457
24614.067,162804,-1212.296281
24638.037,162805,-1212.455958
24640.918,162806,-1212.304358
24641.000,162807,-1212.402948
24665.700,162808,-1212.274644
24665.815,162809,-1212.284020
24665.882,162810,-1212.345540
24665.948,162811,-1212.120087
24666.014,162812,-1212.149152
24692.107,162813,-1212.135738
24711.081,162814,-1212.047605
24711.205,162815,-1212.047461
24711.287,162816,-1211.906247
24714.296,162817,-1212.034335
24723.295,162818,-1211.856194
24723.387,162819,-1211.764023
24723.453,162820,-1211.657788
24723.617,162821,-1211.508063
24748.027,162822,-1211.636584
24772.978,162823,-1211.343987
24773.056,162824,-1211.284414
24774.929,162825,-1211.311532
24775.039,162826,-1211.193974
24801.071,162827,-1211.424042
24801.151,162828,-1211.403271
24801.210,162829,-1211.594176
24811.898,162830,-1211.960554
24812.132,162831,-1212.023517
24821.958,162832,-1212.353906
24822.095,162833,-1212.451342
24822.202,162834,-1212.545749
24844.087,162835,-1212.573155
24844.173,162836,-1212.594936
24871.048,162837,-1211.628218
24871.128,162838,-1212.502693
24871.187,162839,-1212.591186
24895.103,162840,-1211.009703
24895.188,162841,-1212.547120
24920.955,162842,-1212.357872
24921.055,162843,-1212.308830
24921.137,162844,-1212.658259
24941.129,162845,-1212.475936
24941.266,162846,-1211.783352
24967.809,162847,-1210.486677
24969.098,162848,-1212.254234
24971.178,162849,-1212.637560
24991.989,162850,-1211.113269
24992.052,162851,-1212.681699
25020.578,162852,-1212.171438
25020.661,162853,-1212.364940
25020.719,162854,-1212.393573
25043.046,162855,-1211.357185
25043.166,162856,-1212.758941
25069.762,162857,-1211.165558
25069.916,162858,-1212.347054
25069.980,162859,-1212.641743
25095.035,162860,-1211.538859
25095.114,162861,-1212.639219
25095.173,162862,-1212.773870
25095.231,162863,-1212.643113
25121.059,162864,-1212.624795
25121.145,162865,-1212.452712
25121.199,162866,-1212.787501
25141.145,162867,-1211.245108
25141.309,162868,-1212.479181
25141.442,162869,-1212.047100
25141.561,162870,-1210.861926
25150.072,162871,-1212.472257
25150.234,162872,-1210.808700
25150.393,162873,-1212.549067
25170.641,162874,-1212.386433
25170.767,162875,-1212.185502
25170.877,162876,-1211.521838
25187.146,162877,1.549173
25187.260,162878,5.502448
25187.341,162879,3.934235
25187.422,162880,-1212.278971
25193.621,162881,-1211.792367
25210.294,162882,-1211.841121
25210.469,162883,-1212.593494
25233.060,162884,-1212.664389
25233.150,162885,-1212.810796
25234.946,162886,-1212.763412
25256.042,162887,-1212.778197
25256.124,162888,-1212.801204
25278.014,162889,-1212.714947
25278.088,162890,-1212.775601
25278.142,162891,-1212.644556
25299.996,162892,-1212.644772
25300.064,162893,-1212.672467
25303.975,162894,-1212.540340
25304.096,162895,-1212.552961
25328.139,162896,-1212.376191
25328.225,162897,-1212.372152
25328.292,162898,-1212.322749
25345.058,162899,-1212.142229
25345.144,162900,-1212.204686
25359.019,162901,-1211.929903
25359.081,162902,-1211.860810
25376.396,162903,-1211.777365
25386.213,162904,-1211.629805
25386.364,162905,-1211.618409
25400.090,162906,-1211.465511
25400.178,162907,-1211.475248
25408.970,162908,-1211.559558
25433.593,162909,-1211.579680
25435.622,162910,-1211.946058
25437.988,162911,-1212.146268
25438.093,162912,-1212.299959
25452.332,162913,-1212.499664
25468.933,162914,-1212.527070
25469.046,162915,-1212.749349
25481.115,162916,-1212.692877
25481.215,162917,-1212.774375
25492.873,162918,-1212.744012
25515.240,162919,-1212.720356
25515.345,162920,-1211.105697
25519.452,162921,-1212.416724
25519.643,162922,-1212.690714
25544.006,162923,-1211.758253
25544.086,162924,-1212.694536
25544.143,162925,-1212.720788
25557.978,162926,-1212.618448
25558.043,162927,-1212.413334
25608.189,162928,-1212.330755
25608.312,162929,-1212.590465
25608.377,162930,-1212.473267
25608.417,162931,-1212.694176
25608.458,162932,-1212.721582
25618.659,162933,-1212.401145
25618.724,162934,-1212.638281
25623.007,162935,-1212.561832
25647.284,162936,-1211.761066
25647.373,162937,-1210.515165
25654.418,162938,-1212.351742
25654.594,162939,-1212.714370
25668.710,162940,-1212.790674
25681.423,162941,-1212.679174
25681.520,162942,-1212.646143
25695.218,162943,-1212.746752
25695.287,162944,-1212.583685
25703.135,162945,-1212.659341
25735.104,162946,-1212.570271
25735.251,162947,-1212.669077
25735.369,162948,-1211.164620
25735.486,162949,-1212.705499
25760.347,162950,-1211.111611
25760.512,162951,-1212.488557
25760.653,162952,-1212.023300
25777.474,162953,-1211.036099
25777.551,162954,-1212.827961
25788.093,162955,-1211.497606
25788.177,162956,-1212.388668
25802.074,162957,-1211.877038
25820.416,162958,-1210.533195
25820.491,162959,4.624078
25829.964,162960,5.902650
25830.018,162961,-1210.150229
25839.006,162962,-1212.528873
25862.272,162963,-1211.844727
25862.436,162964,-1212.349506
25870.046,162965,-1212.464757
25870.110,162966,-1211.799651
25882.993,162967,-1212.530748
25896.293,162968,-1212.633377
25896.449,162969,-1212.486465
25910.315,162970,-1212.565655
25910.468,162971,-1212.449034
25919.099,162972,-1212.424657
25942.262,162973,-1212.461078
25942.336,162974,-1212.334938
25948.004,162975,-1212.375254
25948.132,162976,-1212.194733
25963.563,162977,-1212.164586
25976.091,162978,-1212.227549
25976.167,162979,-1212.098162
25990.507,162980,-1211.991495
25990.682,162981,-1211.937475
26018.188,162982,-1211.763157
26019.819,162983,-1211.770514
26019.876,162984,-1211.488590
26053.465,162985,-1211.428946
26053.635,162986,-1211.326605
26053.769,162987,-1211.130939
26053.923,162988,-1211.209840
26055.250,162989,-1211.170750
26069.466,162990,-1211.310738
26069.622,162991,-1211.546360
26092.090,162992,-1211.730847
26092.221,162993,-1212.101552
26092.309,162994,-1212.160836
26118.055,162995,-1212.403309
26118.726,162996,-1212.287410
26129.039,162997,-1212.052149
26129.107,162998,-1212.625083
26135.052,162999,-1212.553178
26149.397,163000,-1212.558371
26149.516,163001,-1212.579502
26172.036,163002,-1212.518199
26172.223,163003,-1212.620395
26172.319,163004,-1212.522021
26198.179,163005,-1212.510770
26198.332,163006,-1212.523103
26204.123,163007,-1212.466127
26204.260,163008,-1212.625299
26219.313,163009,-1212.553755
26230.988,163010,-1212.546903
26231.086,163011,-1212.545605
26245.045,163012,-1212.502981
26245.206,163013,-1212.629050
26259.031,163014,-1212.527214
26259.109,163015,-1212.568323
26271.976,163016,-1212.628473
26286.081,163017,-1212.588662
26286.215,163018,-1212.677804
26300.226,163019,-1212.636623
26300.360,163020,-1212.672611
26308.269,163021,-1212.494254
26332.508,163022,-1212.521084
26332.658,163023,-1212.570920
26339.965,163024,-1212.496779
26340.019,163025,-1212.558082
26348.963,163026,-1211.820061
26372.151,163027,-1212.054601
26372.313,163028,-1212.597028
26378.028,163029,-1212.515458
26378.156,163030,-1212.652129
26392.216,163031,-1212.678309
26406.243,163032,-1212.634387
26406.396,163033,-1211.542898
26420.342,163034,-1212.326427
26420.489,163035,-1212.234040
26443.298,163036,-1211.217846
26443.458,163037,-1212.651119
26443.587,163038,-1211.087883
26458.317,163039,-1212.018612
26458.467,163040,-1211.042662
26483.048,163041,3.354665
26507.266,163042,6.372162
26507.326,163043,2.573155
26507.366,163044,-1212.231515
26507.405,163045,-1212.763196
26520.509,163046,-1212.281712
26520.602,163047,-1212.215072
26527.307,163048,-1212.456535
26541.215,163049,-1212.368042
26541.295,163050,-1212.344530
26555.589,163051,-1212.373018
26555.749,163052,-1212.251854
26569.241,163053,-1212.315176
26587.069,163054,-1212.125641
26587.149,163055,-1212.119006
26592.872,163056,-1212.100326
26592.935,163057,-1211.906103
26607.178,163058,-1211.987384
26621.120,163059,-1211.736761
26621.236,163060,-1211.681516
26636.050,163061,-1211.626920
26636.143,163062,-1211.460319
26643.116,163063,-1211.511164
26670.664,163064,-1211.286361
26670.753,163065,-1211.152359
26672.972,163066,-1211.022901
26673.043,163067,-1210.803219
26698.119,163068,-1210.821393
26698.196,163069,-1210.548557
26698.256,163070,-1210.497856
26720.940,163071,-1210.515237
26721.111,163072,-1210.546682
26740.101,163073,-1210.742492
26740.174,163074,-1210.976094
26740.226,163075,-1211.018790
26753.178,163076,-1211.304392
26753.287,163077,-1211.283693
26778.753,163078,-1211.410555
26778.914,163079,-1211.444813
26778.968,163080,-1211.271576
26798.043,163081,-1211.408968
26798.199,163082,-1211.304031
26809.096,163083,-1211.314633
26809.169,163084,-1211.282395
26822.044,163085,-1211.081897
26835.988,163086,-1211.132742
26836.060,163087,-1211.013020
26850.232,163088,-1210.989220
26850.464,163089,-1210.938951
26858.029,163090,-1210.750426
26882.039,163091,-1210.860700
26882.147,163092,-1210.694243
26892.001,163093,-1210.689843
26892.085,163094,-1210.705277
26915.259,163095,-1210.522016
26915.960,163096,-1210.538099
26916.043,163097,-1210.394217
26942.867,163098,-1210.382894
26942.955,163099,-1210.354694
26943.009,163100,-1210.202734
26943.063,163101,-1210.141503
26955.050,163102,0.311205
26977.950,163103,0.965709
26978.115,163104,1.018069
26986.135,163105,1.864777
26986.291,163106,1.932571
26996.261,163107,2.477666
27019.204,163108,2.471464
27019.325,163109,2.547047
27024.266,163110,2.734996
27024.394,163111,2.209735
27037.203,163112,2.657033
27051.165,163113,2.649677
27051.297,163114,2.726486
27070.088,163115,2.872677
27070.172,163116,2.811806
27072.993,163117,3.028243
27097.082,163118,3.035960
27097.169,163119,3.155538
27104.362,163120,3.849131
27104.466,163121,4.676294
27121.401,163122,6.984980
27131.009,163123,10.012429
27131.089,163124,7.604144
27145.417,163125,4.247531
27145.563,163126,3.441356
27171.756,163127,4.080209
27171.855,163128,4.133363
27171.909,163129,4.067948
27183.034,163130,4.179665
27183.164,163131,4.086628
27208.125,163132,4.274216
27208.209,163133,4.286910
27208.272,163134,4.347492
27226.040,163135,4.546403
27226.126,163136,4.485316
27240.409,163137,4.675501
27240.495,163138,4.673193
27248.041,163139,4.791545
27273.000,163140,4.963338
27273.082,163141,4.898068
27281.004,163142,5.104697
27281.063,163143,5.172852
27290.049,163144,5.266610
27304.048,163145,5.482326
27304.119,163146,5.482109
27327.699,163147,5.719966
27327.897,163148,5.805575
27328.023,163149,5.929912
27352.125,163150,6.093989
27352.240,163151,5.999149
27358.917,163152,6.122405
27358.977,163153,5.834135
27382.990,163154,5.574858
27407.407,163155,5.380490
27407.660,163156,5.009929
27407.761,163157,4.913791
27407.863,163158,4.710408
27432.267,163159,4.591912
27432.360,163160,4.660500
27432.425,163161,4.503491
27438.046,163162,4.591696
27438.178,163163,4.486687
27462.026,163164,4.443918
27462.106,163165,4.538109
27462.166,163166,4.420623
27488.144,163167,4.489067
27488.298,163168,4.479474
27493.131,163169,4.288064
27493.247,163170,4.390981
27507.109,163171,4.319941
27522.693,163172,4.330255
27522.792,163173,4.422787
27535.724,163174,4.245656
27535.811,163175,4.387952
27543.009,163176,4.293256
27569.108,163177,4.285539
27569.249,163178,4.271980
27573.099,163179,4.179232
27573.167,163180,4.167116
27587.092,163181,4.006140
27601.058,163182,4.129901
27601.154,163183,4.076387
27618.160,163184,4.012343
27620.797,163185,4.148869
27629.559,163186,3.989769
27629.658,163187,3.976138
27642.074,163188,4.195820
27655.090,163189,3.966762
27655.248,163190,3.707557
27668.586,163191,2.880466
27668.662,163192,2.771562
27686.641,163193,2.309839
27696.059,163194,1.710148
27696.152,163195,1.937764
27711.390,163196,1.633122
27711.565,163197,1.835495
27720.147,163198,2.179948
27742.237,163199,1.815518
27742.408,163200,3.383370
27748.163,163201,4.974301
27748.322,163202,6.345333
27762.271,163203,9.816908
27776.047,163204,9.408771
27776.145,163205,5.066833
27791.198,163206,2.338616
27791.346,163207,3.762657
27815.106,163208,3.984648
27815.239,163209,2.745021
27824.978,163210,2.021064
27828.979,163211,1.924421
27853.982,163212,1.849776
27854.082,163213,2.258345
27854.147,163214,2.134223
27854.208,163215,2.986845
27872.551,163216,3.193834
27872.675,163217,3.421739
27892.276,163218,3.550836
27892.418,163219,3.777298
27892.524,163220,4.046817
27920.754,163221,4.010540
27921.257,163222,4.137113
27930.789,163223,4.291670
27930.882,163224,4.206422
27934.977,163225,4.460506
27948.039,163226,4.470243
27948.139,163227,4.561044
27972.280,163228,4.784116
27972.357,163229,4.761686
27974.933,163230,4.980215
27988.049,163231,4.931677
27988.131,163232,4.854146
28012.054,163233,4.817653
28012.140,163234,4.430648
28012.206,163235,3.731068
28032.124,163236,3.018939
28032.236,163237,2.209879
28047.553,163238,1.422527
28047.642,163239,1.152432
28072.590,163240,1.201618
28072.677,163241,1.134906
28072.742,163242,1.142695
28085.061,163243,1.203133
28085.181,163244,1.056221
28112.214,163245,1.160365
28112.911,163246,1.021459
28113.374,163247,1.046268
28128.317,163248,1.120626
28128.439,163249,0.997298
28142.086,163250,1.150989
28142.200,163251,1.128920
28151.031,163252,1.162817
28163.665,163253,1.157985
28163.949,163254,1.038696
28188.214,163255,1.148321
28188.294,163256,1.087089
28188.345,163257,1.083988
28213.712,163258,1.158634
28213.804,163259,1.058096
28223.650,163260,1.166135
28225.262,163261,1.036244
28230.281,163262,1.059034
28242.969,163263,1.162456
28243.041,163264,1.044898
28270.221,163265,0.972488
28270.388,163266,1.753493
28270.721,163267,3.223909
28295.943,163268,1.733948
28298.064,163269,1.424546
28298.253,163270,1.875667
28298.382,163271,2.074434
28329.240,163272,1.336702
28330.695,163273,1.120698
28330.771,163274,0.906136
28337.976,163275,0.843390
28338.055,163276,0.894020
28364.312,163277,0.792833
28364.707,163278,0.852694
28364.796,163279,0.752589
28387.003,163280,0.665178
28387.069,163281,0.731530
28397.187,163282,0.891135
28397.349,163283,3.998351
28406.085,163284,4.973363
28421.994,163285,7.873158
28425.153,163286,9.720625
28442.019,163287,5.374648
28442.097,163288,0.842092
28445.947,163289,0.568607
28458.103,163290,1.590210
28458.241,163291,1.315571
28482.047,163292,0.787785
28482.163,163293,0.839063
28482.241,163294,0.678809
28507.205,163295,0.826947
28507.345,163296,1.474815
28515.055,163297,2.956049
28515.214,163298,1.382283
28543.139,163299,0.971623
28543.261,163300,1.649205
28543.396,163301,1.856411
28557.060,163302,2.323254
28557.155,163303,3.197008
28573.177,163304,3.038701
28573.255,163305,3.314926
28581.001,163306,3.485999
28594.043,163307,3.432485
28594.123,163308,3.779895
28621.572,163309,3.843217
28621.655,163310,3.965175
28621.712,163311,4.225462
28643.287,163312,4.120741
28643.376,163313,4.342371
28648.219,163314,4.264985
28648.291,163315,4.155792
28663.500,163316,4.001596
28677.167,163317,2.514088
28677.320,163318,1.148104
28690.314,163319,0.702753
28690.403,163320,0.514804
28698.022,163321,0.469800
28722.122,163322,0.180232
28722.277,163323,0.346977
28728.396,163324,0.150374
28728.561,163325,0.132992
28776.948,163326,0.273557
28777.025,163327,0.000072
28777.076,163328,0.154917
28777.126,163329,0.010890
28777.174,163330,0.038946
28803.075,163331,0.236775
28803.154,163332,-1210.021564
28803.214,163333,0.089647
28808.246,163334,-1210.108615
28808.317,163335,-1210.096354
28832.028,163336,0.048105
28832.117,163337,-1210.180160
28832.192,163338,0.034763
28858.031,163339,-1210.213192
28858.113,163340,-1210.267788
28864.773,163341,-1210.111861
28864.892,163342,-1210.366955
28877.301,163343,-1210.233025
28892.286,163344,-1210.404458
28892.451,163345,-1210.465040
28904.999,163346,-1210.355776
28905.078,163347,-1210.613827
28914.185,163348,-1210.335654
28938.050,163349,-1210.527570
28938.153,163350,-1210.479248
28943.969,163351,-1210.390899
28944.078,163352,-1210.640512
28959.108,163353,-1210.415998
28969.019,163354,-1210.525118
28969.997,163355,-1210.652412
28992.269,163356,-1210.617433
28992.491,163357,-1210.911690
29018.625,163358,-1210.887385
29018.699,163359,-1211.023983
29018.756,163360,-1211.097763
29023.075,163361,-1210.957126
29023.149,163362,-1211.043816
29048.161,163363,-1211.092643
29048.337,163364,-1211.052687
29048.484,163365,-1211.218206
29064.337,163366,-1210.321590
29064.873,163367,1.956371
29087.837,163368,4.894823
29087.921,163369,8.022089
29087.982,163370,4.570275
29112.114,163371,-1211.043311
29112.308,163372,-1211.661971
29123.563,163373,-1211.028671
29123.646,163374,-1210.829254
29138.338,163375,-1211.270278
29146.004,163376,-1211.293501
29146.070,163377,-1211.414161
29160.029,163378,-1211.533955
29160.139,163379,-1211.281962
29170.109,163380,-1211.449500
29193.023,163381,-1211.229890
29193.101,163382,-1211.363315
29223.972,163383,-1211.339659
29224.071,163384,-1211.257513
29224.128,163385,-1211.452602
29224.180,163386,-1211.094734
29224.233,163387,-1211.286866
29238.049,163388,-1211.094518
29238.200,163389,-1210.920344
29262.009,163390,-1211.052471
29262.079,163391,-1210.734054
29262.130,163392,-1210.773072
29288.093,163393,-1210.655297
29288.186,163394,-1210.403448
29293.913,163395,-1210.508962
29293.974,163396,-1210.179871
29307.435,163397,-1210.330533
29321.193,163398,-1210.444846
29321.272,163399,-1210.609139
29335.484,163400,-1211.131084
29335.596,163401,-1211.362738
29344.233,163402,-1211.751474
29372.360,163403,-1211.987961
29372.444,163404,-1211.855185
29377.066,163405,-1212.175477
29377.154,163406,-1212.080709
29385.936,163407,-1212.257695
29400.316,163408,-1212.127588
29400.468,163409,-1212.037003
29425.035,163410,-1212.294405
29425.121,163411,-1212.186295
29440.995,163412,-1212.342583
29441.072,163413,-1212.316979
29441.136,163414,-1212.232381
29456.334,163415,-1212.511708
29456.608,163416,-1212.252070
29471.104,163417,-1212.420690
29471.287,163418,-1212.380879
29478.046,163419,-1212.349074
29502.253,163420,-1212.642464
29502.333,163421,-1212.462809
29509.057,163422,-1212.761465
29509.171,163423,-1212.629410
29523.005,163424,-1212.510842
29536.008,163425,-1211.330788
29536.109,163426,-1212.601644
29551.161,163427,-1212.433816
29551.300,163428,-1212.277168
29558.061,163429,-1212.544956
29576.184,163430,-1211.784361
29576.348,163431,-1212.552961
29588.032,163432,-1212.614048
29588.170,163433,-1212.273706
29602.174,163434,-1212.503486
29622.464,163435,-1211.846097
29622.613,163436,-1212.550293
29630.164,163437,-1212.356141
29632.707,163438,-1212.300031
29655.183,163439,-1212.627247
29678.514,163440,-1211.033070
29678.610,163441,-1212.687468
29678.678,163442,-1211.204071
29678.743,163443,-1211.157408
29702.028,163444,-1212.622198
29702.119,163445,-1210.872600
29702.185,163446,-1211.027805
29708.126,163447,-1210.838558
29708.269,163448,-1211.616823
29735.078,163449,-1212.488413
29735.160,163450,-1211.655624
29735.219,163451,1.472435
29758.063,163452,5.861108
29758.188,163453,4.130261
29764.411,163454,0.390106
29764.584,163455,-1211.886918
29780.921,163456,-1211.578382
29791.258,163457,-1212.588662
29791.535,163458,-1212.802646
29805.489,163459,-1212.687829
29805.572,163460,-1212.836255
29813.424,163461,-1212.802574
29837.027,163462,-1212.752522
29837.129,163463,-1211.756306
29843.107,163464,-1212.651624
29843.246,163465,-1212.597316
29856.344,163466,-1212.376480
29870.479,163467,-1212.439370
29870.572,163468,-1212.576185
29883.991,163469,-1212.275870
29884.073,163470,-1212.293540
29909.008,163471,-1212.059000
29909.085,163472,-1211.964665
29909.140,163473,-1212.021713
29925.771,163474,-1211.694209
29925.882,163475,-1211.570809
29948.232,163476,-1211.512823
29948.389,163477,-1211.321989
29948.446,163478,-1211.338938
29973.009,163479,-1211.037325
29973.101,163480,-1210.955828
29977.941,163481,-1210.810286
29978.052,163482,-1210.859473
29992.134,163483,-1211.405506
30007.107,163484,-1211.654326
30007.193,163485,-1212.064770
30020.993,163486,-1212.199782
30021.068,163487,-1212.344169
30029.404,163488,-1212.514593
30052.175,163489,-1212.550581
30052.289,163490,-1212.750863
30057.983,163491,-1212.632151
30058.056,163492,-1212.586354
30072.677,163493,-1211.314272
30086.188,163494,-1212.659918
30086.288,163495,-1211.628867
30102.234,163496,-1212.018468
30124.035,163497,-1212.652561
30124.162,163498,-1211.740295
30124.235,163499,-1212.581233
30124.306,163500,-1212.697277
30140.192,163501,-1212.635901
30140.326,163502,-1212.473556
30163.119,163503,-1212.617438
30163.208,163504,-1212.560534
30163.716,163505,-1212.634170
30178.905,163506,-1211.738997
30179.001,163507,-1212.149657
30202.057,163508,-1212.536734
30202.162,163509,-1212.472834
30202.219,163510,-1212.684872
30230.176,163511,-1212.647080
30230.321,163512,-1212.533705
30233.220,163513,-1212.692949
30233.393,163514,-1212.320730
30247.041,163515,-1211.639108
30264.286,163516,-1212.320081
30264.394,163517,-1212.508751
30274.963,163518,-1211.807224
30275.033,163519,-1212.617150
30284.017,163520,-1212.598542
30302.130,163521,-1212.276159
30302.274,163522,-1212.393356
30318.031,163523,-1211.582493
30318.469,163524,-1212.574093
30340.009,163525,-1212.497428
30340.084,163526,-1212.347559
30340.139,163527,-1212.473483
30356.195,163528,-1210.782736
30356.340,163529,-1212.679246
30368.884,163530,-1211.144570
30368.985,163531,-1211.336991
30381.960,163532,-1212.120520
30395.971,163533,-1211.077281
30396.041,163534,-1212.318061
30410.124,163535,-1211.437240
30410.213,163536,2.734780
30421.848,163537,6.388462
30442.135,163538,3.610914
30442.243,163539,-1212.386577
30448.940,163540,-1211.307781
30449.172,163541,-1211.841337
30463.440,163542,-1212.652706
30476.063,163543,-1212.751873
30476.135,163544,-1212.679968
30490.003,163545,-1212.856810
30490.051,163546,-1212.712206
30498.370,163547,-1212.672828
30518.845,163548,-1212.676362
30520.960,163549,-1212.624001
30532.254,163550,-1212.747762
30532.440,163551,-1212.833226
30538.847,163552,-1212.644556
30563.323,163553,-1212.684439
30571.969,163554,-1212.548274
30572.097,163555,-1212.356574
30572.200,163556,-1212.304502
30596.080,163557,-1211.996399
30596.166,163558,-1212.148575
30596.240,163559,-1211.929831
30611.023,163560,-1211.606004
30611.171,163561,-1211.571025
30626.026,163562,-1211.552057
30626.082,163563,-1211.481234
30633.139,163564,-1211.346294
30657.158,163565,-1211.082618
30657.212,163566,-1211.123943
30663.100,163567,-1211.208470
30663.495,163568,-1211.746786
30687.917,163569,-1212.018324
30688.054,163570,-1212.258561
30688.158,163571,-1212.435043
30712.081,163572,-1212.619602
30712.163,163573,-1210.967944
30712.642,163574,-1210.895390
30730.108,163575,-1211.478638
30730.181,163576,-1211.004943
30743.953,163577,-1211.783207
30744.018,163578,-1211.250084
30758.109,163579,-1211.258378
30771.355,163580,-1212.648306
30771.616,163581,-1211.081320
30785.490,163582,-1212.705571
30785.632,163583,-1211.342760
30810.099,163584,-1211.330211
30810.152,163585,-1211.808522
30810.190,163586,-1211.021963
30823.133,163587,-1212.971988
30823.209,163588,-1212.592340
30855.395,163589,-1212.742641
30855.460,163590,-1212.963189
30855.507,163591,-1211.140387
30869.172,163592,-1212.945375
30870.289,163593,-1211.629083
30884.028,163594,-1211.501356
30884.104,163595,-1212.899073
30889.298,163596,-1211.024848
30906.410,163597,-1211.207388
30906.571,163598,-1211.622953
30930.353,163599,-1212.779495
30930.501,163600,-1213.051322
30955.188,163601,-1212.173313
30955.238,163602,-1213.063078
30955.274,163603,-1212.069891
30981.072,163604,-1211.494288
30981.149,163605,-1212.996798
31001.529,163606,-1211.211932
31001.612,163607,-1212.959223
31001.674,163608,-1211.448274
31027.269,163609,-1211.560424
31029.000,163610,-1213.142195
31029.095,163611,-1211.278428
31053.630,163612,-1213.041658
31053.716,163613,-1211.630959
31079.734,163614,-1212.268802
31079.823,163615,-1210.546538
31080.050,163616,4.784116
31080.242,163617,4.824648
31080.318,163618,-1212.158600
31096.937,163619,-1211.442000
31097.004,163620,-1212.437423
31103.013,163621,-1213.142556
31103.086,163622,-1213.037835
31103.140,163623,-1213.078007
31131.190,163624,-1212.835822
31131.348,163625,-1213.203931
31154.940,163626,-1211.517728
31154.992,163627,-1212.701099
31155.035,163628,-1213.144719
31181.493,163629,-1213.020021
31181.629,163630,-1212.907583
31200.017,163631,-1212.995139
31200.161,163632,-1212.725548
31201.931,163633,-1213.013314
31206.928,163634,-1212.776034
31207.010,163635,-1212.545605
31232.033,163636,-1212.559813
31232.103,163637,-1212.250411
31257.427,163638,-1212.236780
31259.010,163639,-1212.039816
31259.062,163640,-1211.836072
31283.090,163641,-1211.736040
31283.176,163642,-1211.483830
31314.049,163643,-1211.471353
31314.346,163644,-1211.296675
31314.395,163645,-1211.202845
31320.749,163646,-1211.608673
31320.950,163647,-1211.860738
31341.555,163648,-1212.138118
31341.651,163649,-1212.638570
31341.707,163650,-1212.727856
31369.075,163651,-1212.543802
31371.581,163652,-1212.516396
31392.020,163653,-1212.184204
31392.090,163654,-1211.091056
31392.142,163655,-1212.827456
31423.079,163656,-1211.283981
31423.163,163657,-1211.099350
31430.958,163658,-1211.166712
31431.023,163659,-1211.241069
31455.403,163660,-1213.098129
31480.267,163661,-1211.668101
31480.348,163662,-1211.897304
31480.405,163663,-1213.047211
31480.467,163664,-1211.230611
31512.207,163665,-1213.198594
31520.112,163666,-1211.627857
31520.211,163667,-1212.918618
31520.274,163668,-1213.292569
31520.334,163669,-1211.598215
31542.089,163670,-1213.248502
31542.156,163671,-1212.562049
31542.207,163672,-1212.886957
31570.826,163673,-1212.927128
31571.127,163674,-1211.307926
31601.040,163675,-1213.281101
31601.156,163676,-1211.635358
31601.220,163677,-1212.456030
31606.013,163678,-1212.937442
31606.117,163679,-1211.560856
31606.210,163680,-1213.226577
31606.303,163681,-1212.491225
31632.060,163682,-1212.858613
31657.536,163683,-1213.147604
31657.715,163684,-1212.071117
31659.503,163685,-1213.239920
31659.643,163686,-1211.956804
31683.229,163687,-1211.173347
31702.126,163688,-1212.993841
31702.204,163689,-1211.326533
31702.262,163690,-1213.253984
31702.319,163691,-1211.847107
31728.151,163692,-1212.071333
31730.074,163693,-1213.059976
31730.144,163694,-1211.613794
31755.124,163695,-1212.663235
31755.183,163696,-1211.608745
31786.112,163697,2.681482
31786.267,163698,6.190776
31786.386,163699,0.892649
31793.220,163700,-1213.131088
31793.314,163701,-1211.505034
31793.370,163702,-1212.914507
31793.424,163703,-1213.016054
31793.509,163704,-1213.203210
31827.490,163705,-1213.096831
31827.579,163706,-1213.261340
31827.658,163707,-1213.161163
31827.716,163708,-1213.057741
31845.178,163709,-1213.106856
31875.135,163710,-1212.801997
31875.217,163711,-1212.902246
31875.274,163712,-1212.785554
31875.329,163713,-1212.790963
31888.982,163714,-1212.752810
31895.955,163715,-1212.459059
31896.039,163716,-1212.367825
31896.121,163717,-1212.261229
31896.202,163718,-1212.116481
31923.728,163719,-1212.036282
31923.960,163720,-1211.762004
31924.944,163721,-1211.837154
31947.114,163722,-1211.551913
31947.243,163723,-1211.349179
31973.007,163724,-1211.328120
31973.197,163725,-1210.926547
31973.354,163726,-1211.124448
32002.704,163727,-1211.086007
32002.811,163728,-1211.415675
32008.342,163729,-1212.007866
32008.475,163730,-1212.271182
32008.609,163731,-1212.648739
32008.739,163732,-1212.765576
32008.874,163733,-1212.892005
32035.941,163734,-1211.421012
32036.054,163735,-1212.948404
32036.116,163736,-1212.676506
32061.112,163737,-1211.873287
32061.209,163738,-1212.997880
32093.030,163739,-1211.355526
32093.113,163740,-1213.036104
32093.173,163741,-1212.613976
32124.086,163742,-1211.164115
32124.213,163743,-1213.004443
32124.282,163744,-1212.087993
32124.347,163745,-1211.787607
32150.049,163746,-1212.823057
32177.020,163747,-1210.927556
32177.197,163748,-1212.638353
32177.327,163749,-1212.799545
32177.443,163750,-1212.513006
32203.040,163751,-1212.927633
32205.924,163752,-1211.567059
32205.997,163753,-1213.029685
32231.016,163754,-1211.447553
32231.282,163755,-1212.850679
32231.349,163756,-1212.741343
32256.165,163757,-1211.383437
32256.261,163758,-1213.176669
32256.325,163759,-1211.812200
32256.377,163760,-1211.529339
32282.239,163761,-1212.088426
32282.403,163762,-1211.162096
32282.537,163763,-1212.884216
32298.512,163764,-1211.267754
32298.627,163765,-1212.914435
32302.516,163766,-1213.019300
32302.672,163767,-1211.514049
32302.806,163768,-1213.251315
32328.012,163769,-1212.707013
32328.091,163770,-1211.938557
32353.261,163771,-1213.023916
32353.448,163772,-1211.309296
32353.555,163773,-1213.002135
32383.097,163774,-1211.524146
32383.206,163775,-1211.378677
32389.952,163776,-1211.415964
32390.033,163777,-1211.362089
32390.114,163778,-1212.595369
32420.933,163779,-1211.554870
32421.015,163780,-1213.035167
32442.177,163781,-1212.676362
32442.312,163782,-1211.398727
32442.379,163783,3.502803
32475.096,163784,6.294199
32475.180,163785,1.202772
32475.234,163786,-1212.854863
32475.287,163787,-1211.836722
32477.833,163788,-1213.239487
32477.916,163789,-1213.292424
32502.177,163790,-1213.309878
32502.294,163791,-1213.443159
32502.385,163792,-1213.302738
32530.751,163793,-1213.257590
32530.849,163794,-1213.267182
32553.028,163795,-1213.249945
32555.916,163796,-1213.268913
32556.090,163797,-1213.300935
32586.043,163798,-1213.160586
32586.121,163799,-1213.040936
32591.983,163800,-1213.057308
32620.852,163801,-1212.994995
32621.400,163802,-1212.935927
32646.637,163803,-1212.775168
32647.141,163804,-1212.866258
32647.408,163805,-1212.657177
32670.308,163806,-1212.597965
32670.755,163807,-1212.688189
32691.823,163808,-1212.245074
32691.898,163809,-1212.341501
32716.300,163810,-1212.036643
32740.983,163811,-1212.020415
32741.059,163812,-1211.827274
32741.114,163813,-1211.909348
32741.167,163814,-1212.447736
32768.124,163815,-1212.576617
32768.244,163816,-1212.868277
32768.327,163817,-1213.197152
32792.030,163818,-1213.132819
32792.104,163819,-1213.435297
32799.384,163820,-1213.319109
32799.461,163821,-1213.288530
32799.520,163822,-1213.556894
32801.305,163823,-1213.534681
32801.450,163824,-1213.390366
32830.879,163825,-1213.647768
32830.962,163826,-1213.605072
32831.018,163827,-1213.539585
32853.198,163828,-1213.641637
32853.374,163829,-1213.483042
32889.039,163830,-1213.473089
32889.136,163831,-1213.624905
32889.200,163832,-1213.483186
32889.273,163833,-1213.488163
32889.354,163834,-1213.592234
32889.895,163835,-1213.485710
32889.957,163836,-1213.592090
32918.034,163837,-1213.584806
32941.014,163838,-1214.959516
32941.110,163839,-1215.545504
32941.258,163840,-1215.672366
32941.325,163841,-1215.790213
32977.074,163842,-1215.818124
32998.049,163843,-1215.882817
32998.124,163844,-1215.816970
32998.179,163845,-1215.940947
32998.233,163846,-1215.973113
33024.203,163847,-1215.938495
33024.310,163848,-1215.852237
33032.207,163849,-1215.956958
33032.329,163850,-1215.905463
33032.392,163851,-1215.903155
33058.003,163852,-1215.964747
33058.071,163853,-1215.915128
33058.124,163854,-1215.892481
33073.309,163855,-1215.851083
33073.403,163856,-1215.801103
33076.556,163857,-1215.967271
33076.808,163858,-1215.898828
33082.982,163859,-1215.658591
33107.040,163860,-1215.753936
33107.128,163861,-1215.909214
33132.062,163862,-1215.843871
33132.158,163863,-1215.861902
33132.231,163864,-1215.833846
33163.476,163865,-1216.074516
33163.623,163866,-1215.806729
33174.771,163867,-1216.043143
33174.949,163868,-1215.903949
33175.088,163869,-1215.961574
33195.038,163870,-1215.994966
33195.117,163871,-1215.909358
33195.175,163872,-1215.817980
